timestamp_ms,ir_value,ir_filtered
7921.0,25285.0,0.11124209808052528
7930.0,25292.0,0.12779345977928233
7940.0,25286.0,0.14335183910044466
7950.0,25287.0,0.15753946892507323
7960.0,25288.0,0.16998392988021202
7971.0,25290.0,0.18032702957631958
7981.0,25292.0,0.188233763304611
7991.0,25295.0,0.19340116328235368
8001.0,25294.0,0.19556664970934365
8011.0,25285.0,0.19451546354578692
8020.0,25290.0,0.19008698117001063
8030.0,25295.0,0.1821800410710324
8040.0,25288.0,0.1707574506759103
8051.0,25286.0,0.15584958033585053
8061.0,25296.0,0.13755686124145736
8071.0,25288.0,0.11605110421439493
8081.0,25284.0,0.09157550458211122
8091.0,25284.0,0.06444318071486332
8101.0,25289.0,0.035034333170099484
8110.0,25299.0,0.003792163730828876
8120.0,25290.0,-0.028782758483151566
8131.0,25289.0,-0.06214045543571016
8141.0,25286.0,-0.09569244971375368
8151.0,25285.0,-0.12882566193598935
8161.0,25277.0,-0.160918892520951
8171.0,25265.0,-0.1913612836809562
8181.0,25261.0,-0.21957183506879158
8190.0,25266.0,-0.2450186152868762
8200.0,25254.0,-0.2672362372534716
8211.0,25253.0,-0.2858405284807275
8221.0,25250.0,-0.30053961615181657
8231.0,25266.0,-0.3111407167679516
8241.0,25262.0,-0.3175522722847522
8251.0,25257.0,-0.3197817886172524
8261.0,25260.0,-0.3179301130261553
8271.0,25279.0,-0.31218267900912694
8280.0,25278.0,-0.30279821717794675
8290.0,25268.0,-0.2900959621151065
8301.0,25269.0,-0.2744426125624298
8311.0,25270.0,-0.25623964533019117
8321.0,25279.0,-0.23591084732488934
8331.0,25281.0,-0.21388996953207107
8341.0,25273.0,-0.19060892098242926
8351.0,25274.0,-0.16648709781120485
8360.0,25284.0,-0.1419220776313567
8370.0,25279.0,-0.11728158966099773
8381.0,25271.0,-0.09289677094603455
8391.0,25288.0,-0.06905679618920622
8401.0,25285.0,-0.046004823271285834
8411.0,25285.0,-0.02393530162877131
8421.0,25280.0,-0.002992971877772887
8431.0,25287.0,0.01672624033176262
8441.0,25283.0,0.03517262016551922
8450.0,25287.0,0.052338645686049776
8461.0,25284.0,0.06825373028274473
8471.0,25278.0,0.0829778795306062
8481.0,25277.0,0.09659461242370973
8491.0,25287.0,0.10920376193150574
8501.0,25287.0,0.12091474762281876
8511.0,25283.0,0.1318404747703914
8521.0,25285.0,0.14209164301493152
8530.0,25290.0,0.15177132950445896
8541.0,25288.0,0.1609698968381732
8551.0,25285.0,0.16976022020864026
8561.0,25281.0,0.17819320472585717
8571.0,25288.0,0.18629380525891598
8581.0,25292.0,0.19405793127045684
8591.0,25284.0,0.20145039369066703
8601.0,25286.0,0.2084037410905051
8611.0,25284.0,0.21481790463134004
8620.0,25289.0,0.2205608530670267
8631.0,25280.0,0.2254705042985766
8641.0,25281.0,0.22935802569888428
8651.0,25285.0,0.23201269044922518
8661.0,25293.0,0.2332084799577219
8671.0,25287.0,0.2327122978725117
8681.0,25291.0,0.23029321371966058
8691.0,25292.0,0.22573205982164454
8701.0,25286.0,0.21883091102429325
8711.0,25291.0,0.2094221614321061
8721.0,25284.0,0.19737703804925594
8731.0,25287.0,0.18261349995428722
8741.0,25286.0,0.16510351377628477
8751.0,25286.0,0.14487965430826494
8761.0,25295.0,0.12204084422491418
8771.0,25285.0,0.09675682923319262
8781.0,25291.0,0.06927082271947652
8791.0,25293.0,0.03989979783146665
8801.0,25290.0,0.009032028769504626
8811.0,25279.0,-0.022878464722810573
8821.0,25287.0,-0.05532071337829469
8831.0,25286.0,-0.0877386019993888
8841.0,25284.0,-0.11954536033645483
8851.0,25268.0,-0.15014062029679712
8861.0,25268.0,-0.17892976525834617
8872.0,25253.0,-0.20534464036415526
8881.0,25258.0,-0.2288641078773169
8891.0,25252.0,-0.24903284348549223
8901.0,25252.0,-0.265477101481568
8911.0,25248.0,-0.2779166261758898
8921.0,25262.0,-0.28617223069745684
8931.0,25251.0,-0.2901688888890218
8941.0,25258.0,-0.2899345748339913
8952.0,25262.0,-0.2855953062115912
8961.0,25268.0,-0.2773668923956837
8971.0,25266.0,-0.26554406695393734
8981.0,25261.0,-0.2504878821435195
8991.0,25269.0,-0.23261207189011687
9001.0,25270.0,-0.2123687143565495
9011.0,25272.0,-0.1902334451240223
9021.0,25267.0,-0.1666906655636808
9032.0,25268.0,-0.14221919417597273
9041.0,25277.0,-0.11727853980590255
9051.0,25289.0,-0.09229590747188235
9061.0,25275.0,-0.06765445757862068
9071.0,25280.0,-0.04368371405444245
9081.0,25277.0,-0.020652724150815437
9091.0,25284.0,0.0012340652762194485
9101.0,25277.0,0.021838487770114795
9112.0,25285.0,0.0410880167333596
9122.0,25279.0,0.05897283813479469
9131.0,25284.0,0.07554071892154551
9141.0,25274.0,0.09088983451738754
9151.0,25285.0,0.10515985168217669
9161.0,25273.0,0.11852170163657562
9171.0,25284.0,0.13116650123093376
9181.0,25276.0,0.14329401103572315
9192.0,25278.0,0.1551009592845937
9202.0,25264.0,0.166769606586869
9211.0,25279.0,0.17845715242910312
9221.0,25276.0,0.19028675066943637
9231.0,25279.0,0.20234062524687196
9241.0,25270.0,0.21465527922778532
9251.0,25284.0,0.2272186526503921
9261.0,25284.0,0.2399692174460175
9272.0,25278.0,0.2527968791668194
9282.0,25279.0,0.2655453268608025
9291.0,25283.0,0.27801560882690557
9301.0,25284.0,0.28997098119212106
9311.0,25283.0,0.3011430083182101
9321.0,25280.0,0.31123868077701566
9331.0,25288.0,0.31994833021760966
9341.0,25289.0,0.32695420669248043
9352.0,25277.0,0.3319394781892086
9362.0,25283.0,0.33459735829900655
9372.0,25287.0,0.33464031608154615
9381.0,25284.0,0.3318094715273916
9391.0,25284.0,0.3258840308656901
9401.0,25284.0,0.3166903896539247
9411.0,25280.0,0.30411062290230223
9421.0,25293.0,0.28809021609268065
9432.0,25282.0,0.2686448039834022
9442.0,25286.0,0.24586547002297685
9452.0,25281.0,0.21992213349302261
9461.0,25291.0,0.19106476328281766
9471.0,25281.0,0.1596222517972648
9481.0,25274.0,0.12599870103576064
9491.0,25281.0,0.0906670137260885
9501.0,25288.0,0.05415999261521234
9512.0,25283.0,0.017059038720390877
9522.0,25275.0,-0.0200199307678279
9532.0,25259.0,-0.056443692369859244
9541.0,25255.0,-0.09158155016782618
9551.0,25251.0,-0.12482630427647903
9561.0,25240.0,-0.15561448065804365
9571.0,25246.0,-0.18344417097425458
9581.0,25252.0,-0.20788928646695226
9592.0,25250.0,-0.22860965534502392
9602.0,25242.0,-0.24535709867543504
9612.0,25252.0,-0.25797791471549775
9622.0,25248.0,-0.26641201994890507
9631.0,25252.0,-0.2706889148935366
9641.0,25251.0,-0.2709208444011882
9651.0,25255.0,-0.2672936686302254
9661.0,25260.0,-0.26005598557372944
9672.0,25263.0,-0.24950714736713542
9682.0,25256.0,-0.23598496896234514
9692.0,25265.0,-0.21985389109482442
9702.0,25258.0,-0.20149407645852738
9711.0,25260.0,-0.18129164367666797
9721.0,25263.0,-0.1596301065001664
9731.0,25262.0,-0.1368830236416728
9741.0,25255.0,-0.1134078618332278
9752.0,25265.0,-0.08954102518768653
9762.0,25266.0,-0.06559389142530744
9772.0,25258.0,-0.04184976412532063
9782.0,25262.0,-0.018561802626892533
9791.0,25270.0,0.004048106784861358
9801.0,25266.0,0.025789679456190442
9811.0,25262.0,0.04650371809112635
9821.0,25259.0,0.06606065785171868
9832.0,25262.0,0.08435843783759155
9842.0,25272.0,0.10132025930892898
9852.0,25265.0,0.11689255028316668
9862.0,25267.0,0.1310429764030674
9872.0,25271.0,0.1437581954250478
9881.0,25274.0,0.15504121973495757
9891.0,25261.0,0.16490830867266004
9901.0,25261.0,0.1733853683256779
9912.0,25270.0,0.18050419344751942
9922.0,25268.0,0.18629913469115245
9932.0,25268.0,0.19080445582729175
9942.0,25270.0,0.19405218605861166
9952.0,25266.0,0.19607020651250254
9961.0,25273.0,0.19688047506395653
9971.0,25262.0,0.19649737941166479
9981.0,25270.0,0.1949262402712046
9992.0,25268.0,0.1921620491972725
10002.0,25265.0,0.1881885288541617
10012.0,25263.0,0.18297753710602443
10022.0,25269.0,0.17648886502649447
10032.0,25261.0,0.1686705475207608
10041.0,25267.0,0.15945973820080855
10051.0,25260.0,0.14878411119438567
10061.0,25250.0,0.1365638206826538
10072.0,25253.0,0.12271430326787708
10082.0,25258.0,0.10715048990253234
10092.0,25262.0,0.08979288099202544
10102.0,25255.0,0.070575326735334
10112.0,25255.0,0.04945386069923566
10121.0,25260.0,0.026416007900030774
10131.0,25266.0,0.0014902116390209175
10141.0,25254.0,-0.025245116634162984
10152.0,25263.0,-0.05365366074722876
10162.0,25267.0,-0.08353503601654415
10172.0,25267.0,-0.11462095436875323
10182.0,25266.0,-0.14657445967342986
10192.0,25265.0,-0.1789930786422536
10202.0,25260.0,-0.21141644881240146
10211.0,25254.0,-0.24333852261777625
10221.0,25242.0,-0.2742239704312315
10232.0,25233.0,-0.30352785603589055
10242.0,25230.0,-0.33071708977681874
10252.0,25232.0,-0.35529187159861664
10262.0,25230.0,-0.37680557971847856
10272.0,25214.0,-0.39488213128912214
10282.0,25219.0,-0.4092301310576997
10291.0,25218.0,-0.4196529605426456
10301.0,25227.0,-0.4260539483882525
10312.0,25223.0,-0.4284363200551691
10322.0,25231.0,-0.4268983327905045
10332.0,25239.0,-0.42162438667135277
10342.0,25247.0,-0.41287312190003395
10352.0,25232.0,-0.400963785120049
10362.0,25233.0,-0.3862621040380364
10371.0,25244.0,-0.3691662654131914
10381.0,25242.0,-0.3500930049352063
10392.0,25237.0,-0.3294639354416493
10402.0,25243.0,-0.3076925519937026
10412.0,25253.0,-0.2851722792766846
10422.0,25248.0,-0.2622658759042548
10432.0,25240.0,-0.23929672784476363
10442.0,25246.0,-0.21654247151700634
10452.0,25248.0,-0.19423085782470112
10461.0,25245.0,-0.1725374937651866
10472.0,25239.0,-0.1515852604797953
10482.0,25248.0,-0.13144524913136546
10492.0,25251.0,-0.11213890216773313
10502.0,25255.0,-0.09364119093199341
10512.0,25251.0,-0.07588509421218712
10522.0,25253.0,-0.05876781781760255
10532.0,25243.0,-0.04215890377502206
10541.0,25249.0,-0.025909900844461365
10552.0,25240.0,-0.009864908236027545
10562.0,25239.0,0.006128839358639208
10572.0,25246.0,0.022211177406020476
10582.0,25252.0,0.03850068268377342
10592.0,25247.0,0.05508804045922064
10602.0,25247.0,0.0720308644247109
10612.0,25250.0,0.08934969939686899
10621.0,25258.0,0.10702519688962532
10632.0,25244.0,0.12499647296626774
10642.0,25249.0,0.14316054108158327
10652.0,25248.0,0.16137289834919824
10662.0,25259.0,0.17944960577831026
10672.0,25259.0,0.1971709967177326
10682.0,25254.0,0.21428661989815742
10692.0,25257.0,0.2305208152560214
10702.0,25255.0,0.24557861326681368
10712.0,25260.0,0.2591519886563774
10722.0,25250.0,0.2709265456106212
10732.0,25255.0,0.2805886640175201
10742.0,25251.0,0.2878332377946344
10752.0,25266.0,0.29237220059714975
10762.0,25253.0,0.293943783501831
10772.0,25266.0,0.29232205241789416
10782.0,25258.0,0.2873261201411689
10792.0,25259.0,0.2788285429246219
10802.0,25256.0,0.26676259778828754
10812.0,25255.0,0.2511283468961526
10822.0,25255.0,0.23199756413007358
10832.0,25271.0,0.20951755663364444
10842.0,25257.0,0.18391357354150942
10852.0,25253.0,0.15548912234630696
10862.0,25254.0,0.12462365777039011
10872.0,25257.0,0.09176770185618612
10882.0,25256.0,0.057435708581108955
10892.0,25250.0,0.022196703093318344
10902.0,25253.0,-0.013337474646271578
10912.0,25252.0,-0.048526345207454004
10922.0,25246.0,-0.08271724642351184
10932.0,25228.0,-0.11526382950847162
10942.0,25232.0,-0.14554595495398903
10953.0,25225.0,-0.1729897303274822
10962.0,25228.0,-0.1970862195586818
10972.0,25214.0,-0.21740770795667955
10982.0,25227.0,-0.23362079033647656
10992.0,25222.0,-0.24549572243669177
11002.0,25223.0,-0.25291173949917656
11012.0,25219.0,-0.25585839988927445
11022.0,25228.0,-0.254433126257578
11033.0,25223.0,-0.24883508331321724
11042.0,25232.0,-0.23935566583590404
11052.0,25232.0,-0.22636611730744907
11062.0,25238.0,-0.21030298775156245
11072.0,25236.0,-0.19165225962082488
11082.0,25239.0,-0.17093297710352998
11092.0,25238.0,-0.14868105653252772
11102.0,25234.0,-0.12543371244115414
11113.0,25249.0,-0.10171472302230258
11122.0,25242.0,-0.07802072791947519
11132.0,25245.0,-0.054808945255381415
11142.0,25238.0,-0.03248678872368749
11152.0,25246.0,-0.0114035876025889
11162.0,25254.0,0.008155687786985963
11172.0,25256.0,0.02597462567378177
11182.0,25230.0,0.041907026442123754
11193.0,25246.0,0.05587570693121566
11203.0,25247.0,0.0678689446228472
11212.0,25248.0,0.0779353957623385
11222.0,25243.0,0.0861778032819866
11232.0,25240.0,0.09274539219328898
11242.0,25234.0,0.09782513121469147
11252.0,25244.0,0.10163251677704498
11262.0,25247.0,0.10440259631901179
11273.0,25249.0,0.10638147855687348
11283.0,25244.0,0.10781799829181497
11292.0,25247.0,0.10895506998765782
11302.0,25238.0,0.1100206079046914
11312.0,25233.0,0.11121833569445809
11322.0,25238.0,0.11271916517137001
11332.0,25244.0,0.11465395885527285
11342.0,25241.0,0.11710816883693854
11353.0,25235.0,0.12011828993164149
11363.0,25238.0,0.12366990940476696
11372.0,25241.0,0.12769742903032819
11382.0,25245.0,0.13208566067925967
11392.0,25238.0,0.13667320859041795
11402.0,25233.0,0.1412573257723684
11412.0,25254.0,0.1456001033531428
11422.0,25244.0,0.14943597260742306
11433.0,25238.0,0.15248017457474192
11443.0,25240.0,0.15443765734958378
11452.0,25242.0,0.15501226371234078
11462.0,25247.0,0.15391641527475985
11472.0,25233.0,0.15088127860694198
11482.0,25242.0,0.1456671469704166
11492.0,25245.0,0.13807388909163426
11502.0,25248.0,0.12795135479716183
11513.0,25236.0,0.11520930267125344
11523.0,25251.0,0.09982622190924367
11533.0,25246.0,0.08185659561453806
11542.0,25254.0,0.061436201907992254
11552.0,25246.0,0.038784811931861354
11562.0,25247.0,0.014205583001434414
11572.0,25245.0,-0.011919242431239329
11582.0,25246.0,-0.039136344365221766
11593.0,25241.0,-0.06693288606106307
11603.0,25235.0,-0.09475142693884255
11613.0,25230.0,-0.12200779367523311
11622.0,25232.0,-0.14811117397393897
11632.0,25219.0,-0.1724854757123956
11642.0,25205.0,-0.19459091667692746
11652.0,25211.0,-0.2139445610299699
11662.0,25209.0,-0.23013820211412864
11673.0,25210.0,-0.24285219738000893
11683.0,25211.0,-0.2518645902380887
11693.0,25212.0,-0.2570554677013104
11702.0,25216.0,-0.2584067656507611
11712.0,25223.0,-0.2559979076824105
11722.0,25218.0,-0.2499979071377411
11732.0,25214.0,-0.24065471135920374
11742.0,25229.0,-0.2282824059391738
11753.0,25235.0,-0.21324670213440913
11763.0,25226.0,-0.19594938861567326
11773.0,25227.0,-0.17681279381778123
11783.0,25232.0,-0.15626506448644897
11792.0,25235.0,-0.1347265215526234
11802.0,25232.0,-0.11259725410022411
11812.0,25237.0,-0.09024632484951146
11822.0,25233.0,-0.06800297003424391
11833.0,25241.0,-0.046150006044362
11843.0,25234.0,-0.024919560020142506
11853.0,25228.0,-0.004491178626427075
11863.0,25232.0,0.015007879261384955
11872.0,25241.0,0.033500684266593965
11882.0,25239.0,0.05095745741999931
11892.0,25230.0,0.06739114967373226
11902.0,25238.0,0.08285159443029573
11913.0,25241.0,0.09741837448388696
11923.0,25233.0,0.11119273009027093
11933.0,25231.0,0.12428870814228035
11943.0,25232.0,0.1368238384620832
11952.0,25236.0,0.14890992739640363
11962.0,25233.0,0.160644556757875
11972.0,25227.0,0.17210358821286154
11982.0,25233.0,0.18333488610633275
11993.0,25234.0,0.19435361422132535
12003.0,25246.0,0.20513937376577218
12013.0,25224.0,0.21563502995538014
12023.0,25230.0,0.225746893692949
12033.0,25238.0,0.23534633062513113
12042.0,25243.0,0.24427319859067254
12052.0,25238.0,0.2523410938029897
12062.0,25241.0,0.2593437697556555
12073.0,25238.0,0.2650620807225676
12083.0,25247.0,0.26927115834699433
12093.0,25237.0,0.27174766439404346
12103.0,25238.0,0.2722769030640983
12113.0,25238.0,0.2706596747829055
12122.0,25244.0,0.26671895695540465
12132.0,25235.0,0.2603064572696864
12142.0,25227.0,0.2513089152958041
12153.0,25238.0,0.23965417200255726
12163.0,25241.0,0.22531729075884238
12173.0,25241.0,0.2083267647748142
12183.0,25237.0,0.18877023687420616
12193.0,25238.0,0.16679895801019323
12202.0,25243.0,0.1426305143529115
12212.0,25243.0,0.11654956014057107
12222.0,25232.0,0.08890618992185219
12233.0,25244.0,0.060111567977607264
12243.0,25242.0,0.030630649133371136
12253.0,25237.0,0.0009718884562805727
12263.0,25227.0,-0.028326242586131607
12273.0,25230.0,-0.05671183167453488
12283.0,25214.0,-0.08363849190550737
12292.0,25212.0,-0.1085855893204975
12302.0,25200.0,-0.13107836979049356
12313.0,25205.0,-0.15070643464833786
12323.0,25201.0,-0.16713906119572786
12333.0,25205.0,-0.18013629957047111
12343.0,25207.0,-0.1895553923619207
12353.0,25213.0,-0.19535259760570614
12363.0,25203.0,-0.19758086834561894
12372.0,25216.0,-0.19638398197573417
12382.0,25215.0,-0.19198764602302226
12393.0,25211.0,-0.18468810271357491
12403.0,25213.0,-0.17483883101137015
12413.0,25228.0,-0.16283586605400546
12423.0,25226.0,-0.14910225990420203
12433.0,25221.0,-0.13407255072138072
12443.0,25222.0,-0.11817825807322765
12452.0,25222.0,-0.1018349680258662
12462.0,25221.0,-0.08543102347420503
12473.0,25218.0,-0.0693176711102448
12483.0,25223.0,-0.05380054162916568
12493.0,25226.0,-0.039132365667422404
12503.0,25231.0,-0.025507000136420578
12513.0,25227.0,-0.013055153928886754
12523.0,25229.0,-0.0018423511803995726
12533.0,25232.0,0.008130499549115752
12542.0,25226.0,0.0169238229813492
12553.0,25224.0,0.024653445330270026
12563.0,25228.0,0.031482270541033995
12573.0,25221.0,0.03761003266036523
12583.0,25228.0,0.04326163207648618
12593.0,25216.0,0.04867448653698818
12603.0,25206.0,0.05408539589054294
12613.0,25216.0,0.05971775757698801
12622.0,25227.0,0.06577023020256619
12633.0,25221.0,0.07240751600715506
12643.0,25213.0,0.07975307361758097
12653.0,25215.0,0.08788335112331841
12663.0,25225.0,0.09682367291865615
12673.0,25229.0,0.10654615630490288
12683.0,25213.0,0.11696955379172999
12693.0,25223.0,0.1279605624526708
12702.0,25228.0,0.13933643748262686
12713.0,25223.0,0.15086901462251576
12723.0,25217.0,0.16229003924194726
12733.0,25224.0,0.1732976122196195
12743.0,25221.0,0.1835638410859556
12753.0,25231.0,0.19274385338862401
12763.0,25227.0,0.20048598138135795
12773.0,25233.0,0.20644255841535158
12783.0,25230.0,0.21028065108370747
12793.0,25229.0,0.2116921553570276
12803.0,25223.0,0.21040291888591353
12813.0,25224.0,0.20618086983904071
12823.0,25223.0,0.1988434129798702
12833.0,25226.0,0.18826439646315818
12843.0,25224.0,0.17438073378688707
12853.0,25229.0,0.15719848386164562
12863.0,25224.0,0.13679801487487556
12873.0,25230.0,0.1133378190350436
12883.0,25237.0,0.08705651865577436
12893.0,25221.0,0.05827250847559614
12903.0,25234.0,0.027380643730407397
12913.0,25226.0,-0.005154388665114504
12923.0,25226.0,-0.038808098956448434
12933.0,25214.0,-0.07300957427649257
12943.0,25214.0,-0.10715790382395426
12953.0,25211.0,-0.14064090650449151
12963.0,25199.0,-0.17285516202102594
12973.0,25191.0,-0.2032262935664713
12983.0,25189.0,-0.23122827057738574
12993.0,25192.0,-0.2564002858475442
13003.0,25192.0,-0.27835997791089206
13013.0,25189.0,-0.29681241676873305
13023.0,25196.0,-0.3115548387015839
13034.0,25200.0,-0.32247738916757623
13043.0,25201.0,-0.32956037352196393
13053.0,25193.0,-0.3328687779930425
13063.0,25199.0,-0.3325447765948872
13073.0,25201.0,-0.3287985822273328
13083.0,25206.0,-0.32189783845144515
13093.0,25206.0,-0.3121559980496482
13103.0,25202.0,-0.29992040238484946
13114.0,25200.0,-0.2855606715331241
13123.0,25210.0,-0.26945763384486027
13133.0,25204.0,-0.2519927993773043
13143.0,25202.0,-0.2335384897702943
13153.0,25202.0,-0.2144488002330885
13163.0,25214.0,-0.19505137793262925
13173.0,25214.0,-0.17563999207537845
13183.0,25213.0,-0.15646827275686395
13194.0,25209.0,-0.1377452777951501
13204.0,25203.0,-0.11963324597625724
13213.0,25217.0,-0.10224730343450195
13223.0,25210.0,-0.08565663598016753
13233.0,25211.0,-0.06988689226349126
13243.0,25207.0,-0.05492384037478077
13253.0,25214.0,-0.04071817254387551
13263.0,25209.0,-0.02719114460189452
13274.0,25217.0,-0.014240800417780437
13284.0,25207.0,-0.0017487079920281824
13293.0,25218.0,0.010412829662681125
13303.0,25210.0,0.02237320304764002
13313.0,25204.0,0.034255758894470835
13323.0,25209.0,0.046170249228476096
13333.0,25220.0,0.05820601238836457
13343.0,25215.0,0.07042625464443748
13354.0,25207.0,0.08286327752843939
13364.0,25204.0,0.09551439684055046
13373.0,25217.0,0.10833884105134572
13383.0,25213.0,0.1212562421505073
13393.0,25207.0,0.1341469631118633
13403.0,25212.0,0.14685411849543104
13413.0,25226.0,0.1591872128501894
13423.0,25222.0,0.17092727052644924
13434.0,25212.0,0.18183287763809575
13444.0,25215.0,0.19164646131539376
13454.0,25222.0,0.20010070157585308
13463.0,25220.0,0.20692535618232807
13473.0,25218.0,0.21185450003448886
13483.0,25224.0,0.21463384037226174
13493.0,25218.0,0.21502779374923994
13503.0,25222.0,0.21282613385745452
13514.0,25213.0,0.20785008499146712
13524.0,25216.0,0.19995787612622057
13534.0,25217.0,0.18904994857797505
13543.0,25219.0,0.17507400445311092
13553.0,25216.0,0.15802983608141655
13563.0,25213.0,0.13797365304163042
13573.0,25216.0,0.11502166698931739
13583.0,25223.0,0.08935282757835794
13594.0,25212.0,0.06121049920149051
13604.0,25207.0,0.03090268773102499
13614.0,25218.0,-0.0011993969305954656
13623.0,25226.0,-0.034664378091275164
13633.0,25228.0,-0.06900560840096648
13643.0,25213.0,-0.10368888042560244
13653.0,25207.0,-0.13814392127308606
13663.0,25208.0,-0.17177970188053612
13674.0,25197.0,-0.2040026113127426
13684.0,25182.0,-0.23423619890676048
13694.0,25189.0,-0.26194109682215483
13704.0,25180.0,-0.28663357326617633
13713.0,25185.0,-0.30790130414686784
13723.0,25175.0,-0.3254154847963696
13733.0,25184.0,-0.33893889395533877
13743.0,25191.0,-0.348329817329778
13754.0,25193.0,-0.3535420615671427
13764.0,25189.0,-0.3546216840349127
13774.0,25189.0,-0.351701222568476
13784.0,25193.0,-0.34499195996911003
13793.0,25198.0,-0.33477446491576596
13803.0,25198.0,-0.32138772023026047
13813.0,25188.0,-0.30521738624562117
13823.0,25192.0,-0.2866836459908043
13834.0,25206.0,-0.2662286666170871
13844.0,25197.0,-0.24430362784027168
13854.0,25198.0,-0.22135567212317683
13864.0,25203.0,-0.1978153327343578
13873.0,25211.0,-0.17408477237377026
13883.0,25215.0,-0.15052715218094137
13893.0,25205.0,-0.12745779868869106
13903.0,25210.0,-0.1051378993127512
13914.0,25208.0,-0.0837709775559438
13924.0,25208.0,-0.06350190125883061
13934.0,25204.0,-0.04441804540061843
13944.0,25203.0,-0.026552224785129655
13954.0,25210.0,-0.009886915836689571
13963.0,25215.0,0.005640673038473617
13973.0,25200.0,0.020132804763366468
13983.0,25209.0,0.03372461575061997
13994.0,25213.0,0.04657687095523324
14004.0,25212.0,0.058868409184344085
14014.0,25204.0,0.07078839232348832
14024.0,25207.0,0.08252835785322254
14034.0,25211.0,0.09427437523685357
14043.0,25212.0,0.10619978194041502
14053.0,25214.0,0.11845869640422034
14063.0,25211.0,0.13118017100753207
14074.0,25205.0,0.1444628533810796
14084.0,25216.0,0.15837030755608972
14094.0,25214.0,0.17292733976267552
14104.0,25212.0,0.18811751025323636
14114.0,25208.0,0.2038817646490074
14123.0,25221.0,0.2201181861732805
14133.0,25223.0,0.23668297896605314
14143.0,25207.0,0.2533925406516932
14154.0,25219.0,0.2700262935534565
14164.0,25216.0,0.2863302583027343
14174.0,25224.0,0.30202163211056954
14184.0,25211.0,0.3167944100724162
14194.0,25218.0,0.33032586364868477
14204.0,25226.0,0.3422838384264713
14213.0,25225.0,0.3523348793879076
14223.0,25219.0,0.36015285188674373
14234.0,25227.0,0.3654275187131816
14244.0,25224.0,0.36787274866852687
14254.0,25224.0,0.3672342290829491
14264.0,25215.0,0.36329655249835463
14274.0,25222.0,0.35588967405415084
14284.0,25216.0,0.34489498192168133
14293.0,25229.0,0.3302512154881185
14303.0,25220.0,0.31196012706223164
14314.0,25216.0,0.29009145091233907
14324.0,25226.0,0.2647867634465535
14334.0,25220.0,0.23626205072108497
14344.0,25230.0,0.20480877978802378
14354.0,25218.0,0.17079299990661836
14364.0,25228.0,0.13465190428157617
14373.0,25222.0,0.09688745095753518
14383.0,25223.0,0.058056807795040584
14394.0,25209.0,0.018759501021269286
14404.0,25208.0,-0.02037854260589946
14414.0,25206.0,-0.05872335175602804
14424.0,25196.0,-0.09565261535179075
14434.0,25186.0,-0.1305756524049996
14444.0,25187.0,-0.16295249074093407
14454.0,25187.0,-0.19231073894275696
14463.0,25187.0,-0.21825911221442526
14474.0,25177.0,-0.24049701642955573
14484.0,25190.0,-0.25882001790912723
14494.0,25191.0,-0.27312119933943135
14504.0,25194.0,-0.2833886704981068
14514.0,25191.0,-0.2896998893919766
14524.0,25195.0,-0.29221358022353006
14534.0,25195.0,-0.2911598567993294
14543.0,25203.0,-0.28682901944837785
14554.0,25196.0,-0.2795595646428771
14564.0,25191.0,-0.26972600017601195
14574.0,25197.0,-0.25772680119144664
14584.0,25205.0,-0.24397247030296773
14594.0,25199.0,-0.22887371164015927
14604.0,25197.0,-0.2128301078765192
14614.0,25200.0,-0.19621973520423294
14623.0,25215.0,-0.17938984914981276
14634.0,25210.0,-0.16264881554897756
14644.0,25200.0,-0.14625988904255988
14654.0,25205.0,-0.1304374419693181
14664.0,25208.0,-0.11534561423182056
14674.0,25204.0,-0.10109891690567387
14684.0,25200.0,-0.08776444873416775
14694.0,25201.0,-0.07536548523449177
14704.0,25207.0,-0.06388601638752937
14714.0,25209.0,-0.05327580094206817
14724.0,25194.0,-0.04345581610885655
14734.0,25200.0,-0.03432407882358559
14744.0,25205.0,-0.02576146113420781
14754.0,25206.0,-0.01763692823642253
14764.0,25207.0,-0.009812013117245912
14774.0,25210.0,-0.0021448109986882766
14784.0,25211.0,0.005506126587982952
14794.0,25211.0,0.013277708609197357
14804.0,25205.0,0.021297837450957795
14814.0,25207.0,0.029680566101342884
14824.0,25196.0,0.03852121516475999
14834.0,25210.0,0.047892056543938126
14844.0,25214.0,0.05783914131082714
14854.0,25211.0,0.06838038672868044
14864.0,25210.0,0.07950448492677581
14874.0,25217.0,0.09117012019368588
14884.0,25213.0,0.10330527869066858
14894.0,25205.0,0.11580661290019859
14904.0,25210.0,0.12853896123265085
14914.0,25216.0,0.14133538833786155
14924.0,25210.0,0.1539981297322745
14934.0,25210.0,0.1663005025427824
14944.0,25210.0,0.1779897070737152
14954.0,25218.0,0.1887906098728278
14964.0,25210.0,0.19841061059981488
14974.0,25203.0,0.20654552096682055
14984.0,25205.0,0.21288649818244448
14994.0,25218.0,0.21712843410097885
15004.0,25220.0,0.21898009785423134
15014.0,25221.0,0.21817557838536022
15024.0,25217.0,0.2144859497311781
15035.0,25224.0,0.2077301683784622
15044.0,25216.0,0.19778465567009657
15054.0,25220.0,0.18459129540395358
15064.0,25214.0,0.1681636926245553
15074.0,25215.0,0.14859166988401057
15084.0,25225.0,0.12604405191228885
15094.0,25212.0,0.10076965800126032
15104.0,25224.0,0.07309618261059347
15115.0,25214.0,0.043426580881410506
15124.0,25230.0,0.012232672192654837
15134.0,25218.0,-0.01995434893568673
15144.0,25204.0,-0.05255685912417562
15154.0,25201.0,-0.0849671714608788
15164.0,25206.0,-0.11656643314564587
15174.0,25198.0,-0.1467446955586249
15184.0,25180.0,-0.17492104579529646
15195.0,25176.0,-0.20056284263232324
15204.0,25194.0,-0.22320274643747398
15214.0,25189.0,-0.24245224905915685
15224.0,25174.0,-0.2580112400431477
15234.0,25190.0,-0.26967382559324143
15244.0,25190.0,-0.27733055410379326
15254.0,25191.0,-0.2809671020902936
15264.0,25195.0,-0.28065976671184995
15275.0,25200.0,-0.27656838537950745
15285.0,25188.0,-0.26892735367395765
15294.0,25192.0,-0.25803527763858775
15304.0,25199.0,-0.24424345540582718
15314.0,25199.0,-0.22794317816255744
15324.0,25197.0,-0.20955208356911942
15334.0,25209.0,-0.18950010982605336
15344.0,25206.0,-0.16821565907589708
15355.0,25208.0,-0.14611260206193535
15365.0,25205.0,-0.12357876200038646
15374.0,25212.0,-0.10096629272714241
15384.0,25211.0,-0.07858409931987363
15394.0,25208.0,-0.05669240612361869
15404.0,25209.0,-0.035499580316772535
15414.0,25213.0,-0.01516115318557222
15424.0,25213.0,0.004219156855787688
15435.0,25206.0,0.022586553202976145
15445.0,25211.0,0.039930524046329775
15454.0,25211.0,0.05627877499084107
15464.0,25205.0,0.07169017622746193
15474.0,25203.0,0.08624715043837511
15484.0,25211.0,0.1000480004389004
15494.0,25211.0,0.11319972624917747
15504.0,25216.0,0.12581159183942925
15515.0,25202.0,0.13798930329630857
15525.0,25221.0,0.1498296348114411
15535.0,25210.0,0.1614155745863261
15544.0,25216.0,0.172812087291029
15554.0,25209.0,0.1840624535991466
15564.0,25214.0,0.19518522146192016
15574.0,25220.0,0.2061719738599819
15584.0,25215.0,0.2169860253062457
15595.0,25210.0,0.22756191846728463
15605.0,25221.0,0.23780561333963718
15615.0,25220.0,0.24759546180161757
15624.0,25226.0,0.25678395128767095
15634.0,25212.0,0.26519985628768766
15644.0,25215.0,0.2726504589251317
15654.0,25211.0,0.2789240052234926
15664.0,25216.0,0.28379299555472365
15675.0,25223.0,0.28701881371626814
15685.0,25220.0,0.2883576898730108
15695.0,25212.0,0.2875675387490468
15704.0,25216.0,0.2844152444607542
15714.0,25216.0,0.27868438094723036
15724.0,25220.0,0.27018356342031696
15734.0,25218.0,0.2587553684210202
15744.0,25226.0,0.244285401372658
15755.0,25222.0,0.2267109044719739
15765.0,25212.0,0.20602827480334301
15775.0,25219.0,0.1822990854697605
15785.0,25220.0,0.1556545923252128
15794.0,25225.0,0.1262987808453587
15804.0,25213.0,0.09450964175381969
15814.0,25215.0,0.06063816202044003
15824.0,25217.0,0.025104819067087607
15835.0,25220.0,-0.011606315598860923
15845.0,25213.0,-0.048955870417739786
15855.0,25219.0,-0.08636012095604081
15865.0,25210.0,-0.12320481043981893
15874.0,25202.0,-0.15886179589518107
15884.0,25200.0,-0.19270808868984157
15894.0,25186.0,-0.22414638009120538
15904.0,25182.0,-0.25262572891932156
15915.0,25182.0,-0.2776608671327634
15925.0,25181.0,-0.29884862659958333
15935.0,25179.0,-0.31588039129427437
15945.0,25183.0,-0.32855003895882556
15954.0,25191.0,-0.33675727872668526
15964.0,25189.0,-0.3405066702063354
15974.0,25183.0,-0.3399029462110388
15984.0,25195.0,-0.33514329122116915
15995.0,25194.0,-0.32650700966046114
16005.0,25201.0,-0.31434303206989805
16015.0,25196.0,-0.2990559951430512
16025.0,25208.0,-0.28109175536172715
16035.0,25202.0,-0.26092307549392213
16044.0,25194.0,-0.23903606616747666
16054.0,25197.0,-0.21591766211449562
16064.0,25201.0,-0.19204391965409842
16075.0,25213.0,-0.16786874996032455
16085.0,25214.0,-0.14381319951663962
16095.0,25202.0,-0.12025604317244223
16105.0,25210.0,-0.0975264853095313
16115.0,25203.0,-0.0758991389852471
16124.0,25213.0,-0.05559091012244991
16134.0,25211.0,-0.036759431449365644
16144.0,25209.0,-0.01950299837370483
16155.0,25204.0,-0.003862081994348605
16165.0,25216.0,0.010177706695671855
16175.0,25209.0,0.022681521908132284
16185.0,25213.0,0.033760252281416006
16195.0,25214.0,0.04356453831067756
16204.0,25213.0,0.052277814266837315
16214.0,25211.0,0.06010843417327495
16224.0,25203.0,0.06728106001602786
16235.0,25209.0,0.07402774801507832
16245.0,25210.0,0.0805793968218883
16255.0,25217.0,0.08715808461703156
16265.0,25211.0,0.09397035718053025
16275.0,25211.0,0.10120119908575308
16285.0,25215.0,0.10900851825072658
16294.0,25214.0,0.11751823188478797
16304.0,25214.0,0.1268200820806637
16315.0,25213.0,0.13696420920735106
16325.0,25215.0,0.1479585248978936
16335.0,25216.0,0.15976700192413784
16345.0,25218.0,0.17230896305812765
16355.0,25211.0,0.18545934968233563
16365.0,25213.0,0.19904997936767976
16374.0,25221.0,0.21287197581223918
16384.0,25226.0,0.22667954289137204
16395.0,25216.0,0.24019487261640945
16405.0,25222.0,0.25311367858579475
16415.0,25218.0,0.26511105715499644
16425.0,25222.0,0.27584775570335646
16435.0,25216.0,0.28497701623203237
16445.0,25221.0,0.29215208379988516
16454.0,25229.0,0.2970344119727546
16464.0,25224.0,0.2993024124652901
16475.0,25215.0,0.2986603246928453
16485.0,25221.0,0.2948468617181472
16495.0,25226.0,0.2876437103107132
16505.0,25230.0,0.276884030628115
16515.0,25219.0,0.26246062672674736
16525.0,25228.0,0.2443331451651461
16535.0,25219.0,0.22253388406840005
16544.0,25229.0,0.19717210503894797
16555.0,25220.0,0.1684367510978717
16565.0,25227.0,0.13659733954911538
16575.0,25223.0,0.10200274123666064
16585.0,25230.0,0.06507755199545957
16595.0,25217.0,0.02631573089982166
16605.0,25221.0,-0.013728755718355367
16615.0,25217.0,-0.05445426300910898
16624.0,25217.0,-0.09522645974496818
16635.0,25207.0,-0.13539560099961243
16645.0,25195.0,-0.1743156081101662
16655.0,25196.0,-0.21136408327788614
16665.0,25192.0,-0.24596192427536098
16675.0,25185.0,-0.2775911569491165
16685.0,25188.0,-0.3058099264489376
16695.0,25183.0,-0.33026388761059977
16704.0,25190.0,-0.35069345777143096
16715.0,25194.0,-0.36693673259119874
16725.0,25185.0,-0.37892830147243756
16735.0,25194.0,-0.38669447754293335
16745.0,25203.0,-0.39034546114130586
16755.0,25208.0,-0.3900650516110837
16765.0,25191.0,-0.38609890710461164
16775.0,25203.0,-0.37874242240852957
16785.0,25203.0,-0.36832873618911033
16795.0,25212.0,-0.35521696072522735
16805.0,25204.0,-0.3397809697266879
16815.0,25200.0,-0.3223993646359057
16825.0,25200.0,-0.30344693362412206
16835.0,25208.0,-0.2832873334866112
16845.0,25210.0,-0.2622665771707281
16855.0,25210.0,-0.2407073208980635
16865.0,25203.0,-0.21890432289245626
16875.0,25214.0,-0.197121328951477
16885.0,25211.0,-0.17558930675801565
16895.0,25205.0,-0.15450587453381376
16905.0,25205.0,-0.13403580140055776
16915.0,25220.0,-0.11431227832393336
16925.0,25216.0,-0.09543862425905042
16935.0,25196.0,-0.07749044794531121
16945.0,25209.0,-0.0605183214939154
16955.0,25217.0,-0.04455044651084705
16965.0,25221.0,-0.029594641658300145
16975.0,25212.0,-0.015639719017492053
16985.0,25215.0,-0.0026568660453233006
16995.0,25219.0,0.009398662682652851
17005.0,25224.0,0.020585678268221018
17015.0,25208.0,0.030975087476587025
17025.0,25228.0,0.040647737985501545
17036.0,25222.0,0.049692097265523046
17045.0,25228.0,0.05820174790148257
17055.0,25219.0,0.06627240928136412
17065.0,25213.0,0.07399824016706531
17075.0,25227.0,0.08146767094192718
17085.0,25222.0,0.08875934121638279
17095.0,25219.0,0.09593847910748764
17105.0,25222.0,0.10305370793167286
17116.0,25221.0,0.11013430924382345
17125.0,25227.0,0.11718813079288595
17135.0,25224.0,0.12420021856785853
17145.0,25222.0,0.13113205300006908
17155.0,25220.0,0.13792129812273923
17165.0,25229.0,0.1444821940761345
17175.0,25236.0,0.1507067577897041
17185.0,25223.0,0.1564665983210109
17196.0,25225.0,0.16161486281087104
17205.0,25228.0,0.16598810993820487
17215.0,25232.0,0.16940835854038316
17225.0,25212.0,0.17168556663901305
17235.0,25229.0,0.17262067733324377
17245.0,25226.0,0.17200953099207802
17255.0,25226.0,0.16964793756961344
17265.0,25222.0,0.16533782394423627
17276.0,25228.0,0.15889418922845347
17286.0,25230.0,0.15015272529426862
17295.0,25235.0,0.1389778897362115
17305.0,25224.0,0.1252709146634182
17315.0,25226.0,0.10897717407026149
17325.0,25218.0,0.09009271439741194
17335.0,25230.0,0.06867019809557223
17345.0,25229.0,0.044824522212643686
17356.0,25224.0,0.018737939881843156
17366.0,25229.0,-0.009335860513484777
17375.0,25240.0,-0.03906927078877846
17385.0,25225.0,-0.07006040650061483
17395.0,25241.0,-0.101835557873268
17405.0,25240.0,-0.13385513713259142
17415.0,25235.0,-0.16552371090263962
17425.0,25233.0,-0.19620463995578366
17436.0,25215.0,-0.22523948212571004
17446.0,25212.0,-0.2519715003939823
17455.0,25203.0,-0.275771754583558
17465.0,25198.0,-0.2960657678585585
17475.0,25177.0,-0.3123587056720811
17485.0,25191.0,-0.3242570792159054
17495.0,25196.0,-0.33148513924952655
17505.0,25199.0,-0.33389478384821764
17516.0,25192.0,-0.3314688715153366
17526.0,25202.0,-0.32431847771494343
17536.0,25207.0,-0.3126746186157355
17545.0,25225.0,-0.29687501957555945
17555.0,25215.0,-0.2773470480593923
17565.0,25227.0,-0.25458843700833755
17575.0,25227.0,-0.22914734063802925
17585.0,25231.0,-0.2016028386663236
17596.0,25225.0,-0.17254671034853603
17606.0,25226.0,-0.1425670473450007
17616.0,25223.0,-0.1122338479087854
17625.0,25233.0,-0.08208635417390352
17635.0,25227.0,-0.05262186702852727
17645.0,25229.0,-0.024286003792777434
17655.0,25237.0,0.002535500436206987
17665.0,25246.0,0.027523313152974307
17676.0,25240.0,0.05042897107097132
17686.0,25230.0,0.07107666977550109
17696.0,25240.0,0.08936207742244906
17705.0,25234.0,0.10524857660340209
17715.0,25233.0,0.1187616465790519
17725.0,25231.0,0.12998196834649314
17735.0,25230.0,0.1390377928215484
17745.0,25239.0,0.1460971764494648
17756.0,25238.0,0.15136051362255656
17766.0,25225.0,0.15505343315076767
17776.0,25240.0,0.15742002779854058
17786.0,25229.0,0.15871664247618422
17795.0,25242.0,0.15920655841939166
17805.0,25239.0,0.1591556468705151
17815.0,25247.0,0.15882871824754474
17825.0,25239.0,0.15848608003815234
17836.0,25249.0,0.15837981117184838
17846.0,25235.0,0.15874946247246527
17856.0,25236.0,0.1598171989353652
17866.0,25237.0,0.16178275600222183
17875.0,25247.0,0.16481880063075088
17885.0,25242.0,0.1690670469904088
17895.0,25240.0,0.1746349717362963
17905.0,25237.0,0.18159284598150371
17916.0,25240.0,0.1899711685205612
17926.0,25253.0,0.19975886669104548
17936.0,25244.0,0.21090238818466417
17946.0,25240.0,0.22330536083579483
17955.0,25244.0,0.23682852163912455
17965.0,25245.0,0.2512900895593154
17975.0,25238.0,0.26646700390824396
17985.0,25248.0,0.2820973224193326
17996.0,25252.0,0.2978839138106863
18006.0,25258.0,0.31349932993341073
18016.0,25242.0,0.32859135255724975
18026.0,25258.0,0.3427886542077757
18036.0,25252.0,0.3557064079673676
18045.0,25251.0,0.36695193964312894
18055.0,25244.0,0.376130474843192
18065.0,25245.0,0.3828511680732221
18076.0,25257.0,0.3867338910709186
18086.0,25260.0,0.3874171140148695
18096.0,25250.0,0.38456656721046456
18106.0,25247.0,0.37788397563387593
18116.0,25251.0,0.3671155306226233
18125.0,25258.0,0.35206031483275096
18135.0,25252.0,0.33257881588429783
18145.0,25249.0,0.30860118144346077
18156.0,25255.0,0.2801347376918824
18166.0,25255.0,0.2472705072362912
18176.0,25255.0,0.21018846874333394
18186.0,25250.0,0.1691610860054064
18196.0,25256.0,0.12455461335456876
18205.0,25253.0,0.07682785200248472
18215.0,25252.0,0.026528082179784973
18225.0,25253.0,-0.02571615386987391
18236.0,25244.0,-0.07920567576308413
18246.0,25254.0,-0.13318476585893388
18256.0,25243.0,-0.18685867223308286
18266.0,25232.0,-0.2394143619529431
18276.0,25221.0,-0.29004407480142175
18286.0,25214.0,-0.33797052600644856
18295.0,25211.0,-0.3824719381013378
18305.0,25205.0,-0.422904975252578
18316.0,25201.0,-0.45872401523442163
18326.0,25206.0,-0.4894956224791642
18336.0,25212.0,-0.5149075045723228
18346.0,25219.0,-0.5347718520998108
18356.0,25205.0,-0.5490236818351454
18366.0,25217.0,-0.5577151083149069
18375.0,25222.0,-0.5610062283428593
18385.0,25219.0,-0.5591531340505471
18396.0,25220.0,-0.5524937779942618
18406.0,25226.0,-0.5414325112282484
18416.0,25235.0,-0.5264239583025979
18426.0,25228.0,-0.5079569258015573
18436.0,25220.0,-0.48653917470146807
18446.0,25225.0,-0.4626835496089149
18456.0,25230.0,-0.4368952899246924
18465.0,25241.0,-0.4096601745316262
18476.0,25230.0,-0.38143368076665957
18486.0,25236.0,-0.35263180882303774
18496.0,25240.0,-0.32362406842618247
18506.0,25244.0,-0.29472875753513605
18516.0,25233.0,-0.26621062182496263
18526.0,25233.0,-0.23828097555879518
18536.0,25233.0,-0.21109995194277317
18545.0,25241.0,-0.1847801032912729
18556.0,25241.0,-0.15939066966621368
18566.0,25235.0,-0.13496231611499707
18576.0,25232.0,-0.11149234139872483
18586.0,25248.0,-0.08895008616307476
18596.0,25245.0,-0.0672821008883527
18606.0,25238.0,-0.04641698264098931
18616.0,25241.0,-0.026270087948358715
18625.0,25247.0,-0.006748069417609881
18636.0,25247.0,0.01224709673815586
18646.0,25244.0,0.030814732933924765
18656.0,25250.0,0.04905262127987535
18666.0,25258.0,0.06705460381225867
18676.0,25259.0,0.0849084481434715
18686.0,25241.0,0.10269355472825542
18696.0,25251.0,0.12047822028793177
18706.0,25257.0,0.13831679472396669
18716.0,25263.0,0.15624730384465246
18726.0,25251.0,0.1742895671313495
18736.0,25261.0,0.19244337876428455
18746.0,25254.0,0.21068654730181957
18756.0,25259.0,0.22897299176006053
18766.0,25262.0,0.24723115961353553
18776.0,25258.0,0.26536288321373924
18786.0,25258.0,0.28324268048384343
18796.0,25261.0,0.3007175616666238
18806.0,25260.0,0.31760753625552945
18816.0,25263.0,0.3337070017163038
18826.0,25250.0,0.3487870960939842
18836.0,25268.0,0.36259915391241315
18846.0,25265.0,0.374879491164604
18856.0,25269.0,0.38535549016730974
18866.0,25262.0,0.3937525237534866
18876.0,25274.0,0.3998011912585454
18886.0,25270.0,0.4032445621494446
18896.0,25264.0,0.403845182103914
18906.0,25262.0,0.401391619306957
18916.0,25263.0,0.3957046427839326
18926.0,25272.0,0.3866434131726804
18936.0,25262.0,0.37411187362098336
18946.0,25266.0,0.35806510768300076
18957.0,25270.0,0.33851530610926495
18966.0,25265.0,0.31553707979376383
18976.0,25260.0,0.2892718566352215
18986.0,25271.0,0.25993112905768584
18996.0,25272.0,0.22779840038599256
19006.0,25266.0,0.19322948727614192
19016.0,25266.0,0.15665055745860088
19026.0,25268.0,0.11855341488252345
19037.0,25263.0,0.07948790546405465
19046.0,25271.0,0.04005144267881777
19056.0,25264.0,0.0008755655286344116
19066.0,25250.0,-0.03739057220844358
19076.0,25243.0,-0.07409953198612604
19086.0,25252.0,-0.10862677855693607
19096.0,25227.0,-0.1403922857511061
19106.0,25233.0,-0.16888117932254212
19117.0,25225.0,-0.19366213232031435
19126.0,25233.0,-0.2144022128648221
19136.0,25230.0,-0.2308772152152008
19146.0,25228.0,-0.24297713619775332
19156.0,25228.0,-0.2507068640737861
19166.0,25240.0,-0.2541822100530292
19176.0,25238.0,-0.25362153683697364
19186.0,25236.0,-0.2493336174232499
19197.0,25253.0,-0.24170263354270402
19207.0,25240.0,-0.2311712218500733
19216.0,25252.0,-0.21822245100888737
19226.0,25247.0,-0.20336156558908167
19236.0,25254.0,-0.1870981557453121
19246.0,25251.0,-0.16992927951264652
19256.0,25255.0,-0.15232403123558638
19266.0,25256.0,-0.13470998950947347
19277.0,25257.0,-0.11746190217882517
19287.0,25255.0,-0.1008929129255147
19296.0,25261.0,-0.08524854617155256
19306.0,25256.0,-0.0707035521639711
19316.0,25257.0,-0.05736163496298297
19326.0,25251.0,-0.04525796474481395
19336.0,25257.0,-0.03436414213886412
19346.0,25258.0,-0.02459512413917373
19357.0,25246.0,-0.0158177010094561
19367.0,25251.0,-0.007860183467713253
19376.0,25258.0,-0.0005227920160572124
19386.0,25255.0,0.006411803495586501
19396.0,25248.0,0.013168020104881514
19406.0,25246.0,0.019967043272489163
19416.0,25253.0,0.027017063385717247
19426.0,25253.0,0.034504733845227085
19437.0,25246.0,0.0425882627711444
19447.0,25253.0,0.05139222231188272
19457.0,25266.0,0.06100411216456294
19466.0,25257.0,0.07147255885890215
19476.0,25256.0,0.08280664261779747
19486.0,25259.0,0.09497582344432355
19496.0,25263.0,0.10791037606360702
19506.0,25260.0,0.12150245474993247
19517.0,25258.0,0.1356077458875701
19527.0,25265.0,0.1500476121459946
19537.0,25263.0,0.16461174606011
19546.0,25267.0,0.17906130927018443
19556.0,25251.0,0.1931324122014262
19566.0,25268.0,0.20653993415789257
19576.0,25257.0,0.21898198666185745
19586.0,25265.0,0.23014534034961726
19597.0,25266.0,0.23971186037000844
19607.0,25260.0,0.24736577342771768
19617.0,25268.0,0.2528015450284852
19626.0,25272.0,0.2557321697156808
19636.0,25272.0,0.2558975717478904
19646.0,25255.0,0.25307261504378015
19656.0,25262.0,0.2470743973684635
19666.0,25274.0,0.237769064978618
19677.0,25276.0,0.2250784631319869
19687.0,25256.0,0.20898625756430997
19697.0,25263.0,0.18954279734067286
19707.0,25263.0,0.16686856576298845
19716.0,25268.0,0.14115662744873958
19726.0,25267.0,0.11267420726986847
19736.0,25268.0,0.08176295532109962
19746.0,25267.0,0.04883725288027849
19757.0,25271.0,0.014380044395831649
19767.0,25269.0,-0.02106418922914106
19777.0,25266.0,-0.05689966070080442
19787.0,25264.0,-0.09249294732516533
19796.0,25261.0,-0.12719006527511348
19806.0,25242.0,-0.16033654575859357
19816.0,25240.0,-0.19129964219187776
19826.0,25231.0,-0.2194911936100877
19837.0,25236.0,-0.2443892878266714
19847.0,25230.0,-0.2655570811269456
19857.0,25226.0,-0.2826577140675301
19867.0,25230.0,-0.2954646961616502
19876.0,25242.0,-0.3038673503707592
19886.0,25234.0,-0.30787129733721774
19896.0,25230.0,-0.3075944890951926
19906.0,25240.0,-0.3032594007945241
19917.0,25246.0,-0.2951817042280852
19927.0,25247.0,-0.28375582279956807
19937.0,25239.0,-0.2694382209877587
19947.0,25258.0,-0.25272939156372604
19957.0,25251.0,-0.23415524912896465
19966.0,25260.0,-0.21424861838128564
19976.0,25249.0,-0.1935316730257095
19986.0,25262.0,-0.17250004207509714
19997.0,25260.0,-0.15160895609463135
20007.0,25266.0,-0.1312617238573451
20017.0,25254.0,-0.11180097349643339
20027.0,25263.0,-0.0935030076879812
20037.0,25255.0,-0.07657522524075244
20046.0,25262.0,-0.06115625103494914
20056.0,25262.0,-0.04731841951808992
20066.0,25257.0,-0.0350724125276978
20077.0,25256.0,-0.02437390692095358
20087.0,25263.0,-0.015131936983184142
20097.0,25252.0,-0.007218520897768181
20107.0,25256.0,-0.00047911265559152927
20117.0,25254.0,0.005256567777165728
20126.0,25251.0,0.010163877740227884
20136.0,25262.0,0.01441330409021511
20146.0,25251.0,0.01816155848210418
20157.0,25259.0,0.021543820942063314
20167.0,25255.0,0.024667155465180536
20177.0,25260.0,0.027605164806723124
20187.0,25250.0,0.030393955015843847
20197.0,25256.0,0.033029497638829064
20207.0,25253.0,0.03546661035065836
20216.0,25256.0,0.03761983760869905
20226.0,25262.0,0.03936633960314273
20237.0,25260.0,0.0405505921009634
20247.0,25256.0,0.040990458331150684
20257.0,25264.0,0.040484195112555535
20267.0,25256.0,0.03881814729438083
20277.0,25260.0,0.03577500373988666
20287.0,25259.0,0.03114249770319332
20296.0,25263.0,0.024722433041572362
20306.0,25260.0,0.01633983698545504
20317.0,25260.0,0.005851912498198613
20327.0,25257.0,-0.006843521099841957
20337.0,25260.0,-0.0218002516805063
20347.0,25266.0,-0.03901663692001894
20357.0,25259.0,-0.058429539262954126
20367.0,25257.0,-0.07990967291194852
20376.0,25259.0,-0.10325871436875907
20386.0,25262.0,-0.1282082419121218
20397.0,25255.0,-0.1544205097764602
20407.0,25254.0,-0.1814911925036366
20417.0,25262.0,-0.20895419229993578
20427.0,25267.0,-0.23628853043802367
20437.0,25265.0,-0.2629276253395036
20447.0,25266.0,-0.2882716563820094
20457.0,25254.0,-0.3117036587683929
20466.0,25246.0,-0.3326093922644118
20477.0,25235.0,-0.350400162971369
20487.0,25229.0,-0.3645369730432661
20497.0,25227.0,-0.3745539275014124
20507.0,25234.0,-0.3800789197197855
20517.0,25223.0,-0.3808501816054064
20527.0,25225.0,-0.376727935314322
20537.0,25227.0,-0.36770068234333186
20546.0,25233.0,-0.3538857246086318
20557.0,25240.0,-0.33552381570254336
20567.0,25238.0,-0.31296841884896665
20577.0,25251.0,-0.28667049233840397
20587.0,25255.0,-0.25715988983464744
20597.0,25256.0,-0.22502457188941258
20607.0,25248.0,-0.19088886862467222
20617.0,25266.0,-0.15539173914990267
20627.0,25266.0,-0.11916556585055912
20637.0,25272.0,-0.08281607263405312
20647.0,25256.0,-0.04690427014009135
20657.0,25268.0,-0.011931147393794809
20667.0,25273.0,0.021674807469161367
20677.0,25280.0,0.05356739666444453
20687.0,25268.0,0.08348952310793811
20697.0,25271.0,0.111276478335098
20707.0,25280.0,0.13685557591619832
20717.0,25278.0,0.16024242992904728
20727.0,25271.0,0.1815340803442736
20737.0,25271.0,0.20089904483518523
20747.0,25271.0,0.21856472104871028
20757.0,25272.0,0.2348029562279812
20767.0,25271.0,0.24991458164770505
20777.0,25275.0,0.26421346299036247
20787.0,25269.0,0.2780104502946316
20797.0,25273.0,0.29159757737417363
20807.0,25268.0,0.3052329273513162
20817.0,25261.0,0.3191267092232148
20827.0,25268.0,0.3334292568093945
20837.0,25272.0,0.34822174615129137
20847.0,25276.0,0.36351015513273877
20857.0,25265.0,0.3792224394216398
20867.0,25265.0,0.3952086787952379
20877.0,25279.0,0.4112442722952656
20887.0,25282.0,0.4270364395312919
20897.0,25279.0,0.44223378873833324
20907.0,25275.0,0.45643813893028257
20917.0,25284.0,0.4692178878483135
20927.0,25288.0,0.480122638255921
20937.0,25280.0,0.488698796735104
20947.0,25287.0,0.49450560467046417
20958.0,25289.0,0.4971310772870243
20967.0,25290.0,0.49620745611877864
20977.0,25288.0,0.4914256965950202
20987.0,25285.0,0.48254844950622977
20997.0,25289.0,0.4694211935237153
21007.0,25294.0,0.45198138000016264
21017.0,25289.0,0.4302653575796084
21027.0,25284.0,0.4044126296008094
21038.0,25287.0,0.37466708695098716
21047.0,25292.0,0.34137518757095076
21057.0,25290.0,0.30498110429106234
21067.0,25280.0,0.2660185979444169
21077.0,25286.0,0.22509934867979137
21087.0,25285.0,0.1828978265627364
21097.0,25277.0,0.14013300259218162
21107.0,25266.0,0.09754720463863732
21118.0,25264.0,0.05588269823554449
21127.0,25251.0,0.01585715234895931
21137.0,25257.0,-0.02186047405793835
21147.0,25237.0,-0.056672116177733954
21157.0,25243.0,-0.08806952060858644
21167.0,25240.0,-0.11564867190758088
21177.0,25249.0,-0.13911874784019115
21187.0,25253.0,-0.15830525099539244
21198.0,25253.0,-0.17314777913602258
21208.0,25255.0,-0.18369342257363233
21217.0,25264.0,-0.19008684821000602
21227.0,25258.0,-0.19255802317522147
21237.0,25260.0,-0.19140847497937305
21247.0,25264.0,-0.18699684915340112
21257.0,25265.0,-0.1797242961995242
21267.0,25263.0,-0.17002014147897793
21278.0,25259.0,-0.15832829152689673
21288.0,25261.0,-0.1450946220363946
21297.0,25265.0,-0.13075528651874818
21307.0,25270.0,-0.11572585501335801
21317.0,25258.0,-0.10039146353709459
21327.0,25260.0,-0.08509827124499196
21337.0,25271.0,-0.07014622841202353
21347.0,25279.0,-0.055782978298660885
21358.0,25264.0,-0.042199133764280444
21368.0,25276.0,-0.02952560641934854
21378.0,25273.0,-0.01783344745592668
21387.0,25279.0,-0.007136238917643918
21397.0,25271.0,0.002604957030916396
21407.0,25266.0,0.0114740564209377
21417.0,25266.0,0.019590138079073012
21427.0,25272.0,0.02709613730578773
21438.0,25263.0,0.03414689981138201
21448.0,25263.0,0.040897180293392864
21458.0,25267.0,0.047490054741560976
21467.0,25269.0,0.054046271288241673
21477.0,25267.0,0.060654907987588234
21487.0,25264.0,0.06736542211436587
21497.0,25266.0,0.07418115864281859
21507.0,25271.0,0.08105456372060986
21518.0,25269.0,0.08788432915001146
21528.0,25260.0,0.09451447585618808
21538.0,25263.0,0.10073538786685896
21547.0,25275.0,0.10628708375144784
21557.0,25269.0,0.11086499399377449
21567.0,25264.0,0.11412804306287479
21577.0,25268.0,0.1157085980856085
21587.0,25274.0,0.11522410872238845
21598.0,25277.0,0.11229035744101393
21608.0,25263.0,0.1065358837580256
21618.0,25276.0,0.097616957567046
21628.0,25278.0,0.08523271144061255
21637.0,25271.0,0.06914012541405422
21647.0,25274.0,0.04916832161637471
21657.0,25278.0,0.025231580207284686
21667.0,25280.0,-0.0026593728542505355
21678.0,25287.0,-0.03438838386031049
21688.0,25276.0,-0.06972807255453925
21698.0,25284.0,-0.10833812108385768
21708.0,25274.0,-0.14976822289946742
21717.0,25285.0,-0.1934658838653111
21727.0,25273.0,-0.23878911583997706
21737.0,25258.0,-0.28502399025384595
21747.0,25255.0,-0.3314065957753298
21758.0,25252.0,-0.3771481737495356
21768.0,25244.0,-0.4214617399349357
21778.0,25232.0,-0.4635886260024564
21788.0,25229.0,-0.5028235371714711
21797.0,25235.0,-0.5385366402579681
21807.0,25238.0,-0.570191376240727
21817.0,25234.0,-0.597357423782951
21827.0,25226.0,-0.6197189587993028
21838.0,25235.0,-0.6370784433229425
21848.0,25243.0,-0.6493559346222673
21858.0,25233.0,-0.6565840624855992
21868.0,25242.0,-0.6588992955238893
21878.0,25244.0,-0.6565302707207719
21887.0,25247.0,-0.6497838472937926
21897.0,25243.0,-0.6390295860143355
21907.0,25254.0,-0.6246834158053307
21918.0,25252.0,-0.6071911598582435
21928.0,25257.0,-0.5870125744739763
21938.0,25247.0,-0.56460659591849
21948.0,25258.0,-0.5404182997945229
21958.0,25255.0,-0.5148677292239519
21967.0,25252.0,-0.488340600655423
21977.0,25267.0,-0.4611809553682376
21987.0,25254.0,-0.4336858877708129
21998.0,25252.0,-0.4061024850890497
22008.0,25265.0,-0.37862692663167874
22018.0,25263.0,-0.35140543352186776
22028.0,25263.0,-0.32453688287372
22038.0,25263.0,-0.298077223248966
22047.0,25268.0,-0.2720457944209827
22057.0,25258.0,-0.246433390178591
22067.0,25248.0,-0.2212116720629784
22078.0,25260.0,-0.19634316110171177
22088.0,25258.0,-0.17179067142828616
22098.0,25268.0,-0.14752528091148373
22108.0,25256.0,-0.12353263205383033
22118.0,25272.0,-0.09981777068787959
22128.0,25270.0,-0.07640869877280267
22137.0,25265.0,-0.05335879889538166
22147.0,25269.0,-0.03074834065262502
22158.0,25266.0,-0.008685098703604208
22168.0,25275.0,0.012696140116186182
22178.0,25277.0,0.0332353298516799
22188.0,25272.0,0.052749994637464576
22198.0,25273.0,0.07103877257652542
22208.0,25274.0,0.08788550583395369
22217.0,25278.0,0.10306398807462412
22227.0,25281.0,0.11634345171962174
22238.0,25275.0,0.1274946091697378
22248.0,25272.0,0.13629595848213533
22258.0,25280.0,0.14254029751534114
22268.0,25283.0,0.14604160857886384
22278.0,25277.0,0.14664228148237546
22288.0,25274.0,0.14422032370040744
22297.0,25281.0,0.13869629064658393
22307.0,25284.0,0.1300399336186356
22318.0,25275.0,0.11827646729812953
22328.0,25274.0,0.10349212000991305
22338.0,25279.0,0.08583876864601506
22348.0,25284.0,0.06553771819515145
22358.0,25280.0,0.04288250606250725
22368.0,25294.0,0.018240158508080667
22378.0,25290.0,-0.00794995281763814
22387.0,25289.0,-0.03518058843763194
22398.0,25284.0,-0.0628852623703683
22408.0,25279.0,-0.09045133692899371
22418.0,25272.0,-0.11723725766037134
22428.0,25272.0,-0.14259307844928662
22438.0,25252.0,-0.16588313091257587
22448.0,25255.0,-0.18650946202378768
22458.0,25244.0,-0.2039343945981275
22467.0,25249.0,-0.2177004567541643
22478.0,25245.0,-0.22744620995850448
22488.0,25247.0,-0.2329170394683705
22498.0,25248.0,-0.23397046324711865
22508.0,25268.0,-0.23057592319566253
22518.0,25266.0,-0.22280957119949676
22528.0,25259.0,-0.21084522219567894
22538.0,25264.0,-0.1949428188569438
22548.0,25275.0,-0.17543523095660907
22558.0,25277.0,-0.1527138206913318
22568.0,25265.0,-0.1272134365588171
22578.0,25272.0,-0.09939763268218317
22588.0,25276.0,-0.06974445446340544
22598.0,25282.0,-0.038732756479936986
22608.0,25263.0,-0.006829203117919844
22618.0,25280.0,0.025523764268460505
22628.0,25284.0,0.05791900246120772
22638.0,25288.0,0.0899948401911093
22648.0,25282.0,0.12144391591454155
22658.0,25290.0,0.15201997222367533
22668.0,25285.0,0.1815422133010258
22678.0,25289.0,0.2098972112708156
22688.0,25299.0,0.23703844111511987
22698.0,25288.0,0.2629834163198241
22708.0,25286.0,0.2878083168707368
22718.0,25290.0,0.31164025038987375
22728.0,25286.0,0.3346477459794132
22738.0,25284.0,0.3570302559072917
22748.0,25286.0,0.379007339982604
22758.0,25294.0,0.40080812380697295
22768.0,25294.0,0.42266142748416186
22778.0,25284.0,0.4447866019664007
22788.0,25293.0,0.4673850162684516
22799.0,25297.0,0.4906324178237832
22808.0,25307.0,0.5146724409365344
22818.0,25296.0,0.5396110869621255
22828.0,25300.0,0.5655116638716187
22838.0,25294.0,0.5923899702636308
22848.0,25306.0,0.6202100580180085
22858.0,25304.0,0.6488810489536537
22868.0,25296.0,0.6782551867843039
22879.0,25304.0,0.7081271308786207
22888.0,25306.0,0.7382346776549061
22898.0,25306.0,0.7682611845402605
22908.0,25303.0,0.7978397494641432
22918.0,25309.0,0.8265590686582783
22928.0,25318.0,0.85397096474068
22938.0,25313.0,0.8795994479175228
22948.0,25309.0,0.9029508715105307
22959.0,25312.0,0.9235247895253498
22968.0,25317.0,0.940825524065731
22978.0,25323.0,0.9543745714588324
22988.0,25311.0,0.9637236209278389
22998.0,25317.0,0.9684677052839004
23008.0,25324.0,0.9682581957351604
23018.0,25320.0,0.962815521566017
23028.0,25319.0,0.9519412823653749
23039.0,25321.0,0.9355292466717838
23049.0,25319.0,0.9135748871067367
23058.0,25326.0,0.886183244907447
23068.0,25327.0,0.853574791970783
23078.0,25324.0,0.8160887062179902
23088.0,25321.0,0.7741828721746894
23098.0,25323.0,0.728430130395924
23108.0,25321.0,0.6795106363911563
23119.0,25323.0,0.628200322743795
23129.0,25314.0,0.5753554099539191
23138.0,25314.0,0.5218929712092938
23148.0,25311.0,0.46876782297229647
23158.0,25296.0,0.41694631912667107
23168.0,25290.0,0.3673779287996263
23178.0,25292.0,0.3209658840439012
23188.0,25277.0,0.2785384774204199
23199.0,25263.0,0.2408225707411365
23209.0,25273.0,0.20842088915856433
23218.0,25277.0,0.18179473519643619
23228.0,25279.0,0.16125321786555644
23238.0,25271.0,0.1469490436546872
23248.0,25279.0,0.13888032968923558
23258.0,25294.0,0.13689796510467428
23268.0,25294.0,0.14071792881086304
23279.0,25291.0,0.14993739082559127
23289.0,25297.0,0.1640531369747934
23299.0,25297.0,0.1824812422610963
23308.0,25301.0,0.20457738065244527
23318.0,25299.0,0.22965727178486225
23328.0,25305.0,0.25701676373066246
23338.0,25305.0,0.2859511226201043
23348.0,25313.0,0.3157731302171215
23359.0,25309.0,0.34582952089615326
23369.0,25313.0,0.37551525448001666
23379.0,25307.0,0.40428527228566746
23388.0,25320.0,0.4316636668795947
23398.0,25313.0,0.4572503541049471
23408.0,25315.0,0.48072526770132545
23418.0,25318.0,0.5018500536746197
23428.0,25321.0,0.5204673550373284
23439.0,25318.0,0.5364978213056466
23449.0,25318.0,0.5499349207162724
23459.0,25315.0,0.5608377345362138
23468.0,25325.0,0.5693221437512177
23478.0,25321.0,0.5755508544609835
23488.0,25311.0,0.5797225188776428
23498.0,25315.0,0.5820602179853998
23508.0,25320.0,0.5827999198703971
23519.0,25325.0,0.5821796415904608
23529.0,25315.0,0.5804296063294986
23539.0,25315.0,0.5777633140850412
23549.0,25320.0,0.5743696455504037
23558.0,25325.0,0.5704064338070102
23568.0,25319.0,0.5659957701303581
23578.0,25328.0,0.561220903783388
23588.0,25323.0,0.5561244602631957
23599.0,25333.0,0.5507077618462665
23609.0,25326.0,0.5449310070070336
23619.0,25331.0,0.5387140059618505
23629.0,25325.0,0.5319372494645978
23638.0,25332.0,0.5244432810935878
23648.0,25323.0,0.516038484961484
23658.0,25315.0,0.5064954877556711
23668.0,25330.0,0.49555657121417307
23679.0,25327.0,0.4829386201640433
23689.0,25327.0,0.4683398001866628
23699.0,25322.0,0.45144765718440855
23709.0,25324.0,0.4319483027640718
23718.0,25331.0,0.40953665136594436
23728.0,25332.0,0.3839276734400456
23738.0,25328.0,0.3548682485163402
23748.0,25329.0,0.32214894839144836
23759.0,25324.0,0.28561525244682223
23769.0,25336.0,0.24517800459510317
23779.0,25323.0,0.20082296305553746
23789.0,25333.0,0.15261911075382273
23799.0,25327.0,0.10072530046385249
23808.0,25324.0,0.04539487925226402
23818.0,25333.0,-0.013021968936310984
23828.0,25330.0,-0.0740784121603756
23839.0,25334.0,-0.1372340959138802
23849.0,25338.0,-0.201861842997214
23859.0,25329.0,-0.26725864464800325
23869.0,25321.0,-0.33266145901882976
23879.0,25313.0,-0.39726776667338637
23888.0,25315.0,-0.46026005068378967
23898.0,25294.0,-0.5208328463215693
23908.0,25291.0,-0.5782208338319963
23919.0,25280.0,-0.6317262312960945
23929.0,25280.0,-0.6807434704401568
23939.0,25289.0,-0.724779255913366
23949.0,25283.0,-0.7634667871697997
23959.0,25283.0,-0.7965737877786558
23968.0,25296.0,-0.8240045225663682
23978.0,25293.0,-0.845796189828233
23988.0,25300.0,-0.8621103542983117
23999.0,25302.0,-0.873220402339988
24009.0,25308.0,-0.8794960799735698
24019.0,25309.0,-0.8813861261406496
24029.0,25310.0,-0.8793999802911788
24039.0,25315.0,-0.8740894313059657
24049.0,25311.0,-0.8660308734294468
24058.0,25314.0,-0.8558086342166871
24068.0,25315.0,-0.8439996438801349
24079.0,25320.0,-0.8311595664237156
24089.0,25309.0,-0.8178104885134116
24099.0,25321.0,-0.8044302259308983
24109.0,25323.0,-0.791443171318825
24119.0,25321.0,-0.7792126321961456
24129.0,25329.0,-0.7680348517275836
24138.0,25330.0,-0.7581350401794431
24148.0,25331.0,-0.7496657210554463
24159.0,25323.0,-0.7427076315348843
24169.0,25323.0,-0.7372731486542512
24179.0,25332.0,-0.7333117519631929
24189.0,25330.0,-0.7307168489946674
24199.0,25323.0,-0.729333565439253
24209.0,25328.0,-0.728967319401106
24218.0,25335.0,-0.7293928430742979
24228.0,25328.0,-0.7303632384675289
24239.0,25329.0,-0.7316188792712229
24249.0,25334.0,-0.732896057158824
24259.0,25336.0,-0.7339351407852768
24269.0,25334.0,-0.7344880711305598
24279.0,25351.0,-0.734325263368022
24289.0,25341.0,-0.7332422033384272
24298.0,25337.0,-0.7310661503179883
24309.0,25344.0,-0.7276631698910737
24319.0,25333.0,-0.7229452117893564
24329.0,25336.0,-0.7168765783989761
24339.0,25347.0,-0.709479088930355
24349.0,25342.0,-0.7008354446495186
24359.0,25344.0,-0.6910907045332518
24369.0,25346.0,-0.680452056732432
24378.0,25350.0,-0.669186996205417
24389.0,25358.0,-0.6576199601060222
24399.0,25351.0,-0.6461276809550179
24409.0,25348.0,-0.6351336691941001
24419.0,25356.0,-0.6251019981841197
24429.0,25350.0,-0.6165301802941611
24439.0,25340.0,-0.6099407998783578
24449.0,25349.0,-0.6058715299151811
24458.0,25359.0,-0.6048630312463917
24469.0,25362.0,-0.6074445143390013
24479.0,25344.0,-0.6141174962287671
24489.0,25353.0,-0.6253385704912954
24499.0,25362.0,-0.6415014960733018
24509.0,25369.0,-0.6629186420279725
24519.0,25359.0,-0.6898024221918365
24529.0,25382.0,-0.7222480058603494
24539.0,25371.0,-0.7602186661739476
24549.0,25369.0,-0.8035349997528914
24559.0,25365.0,-0.8518690260303193
24569.0,25365.0,-0.9047435997806551
24579.0,25366.0,-0.9615370133976406
24589.0,25374.0,-1.021492623523738
24599.0,25360.0,-1.083733661731785
24609.0,25353.0,-1.1472835403111525
24619.0,25352.0,-1.2110915478810085
24629.0,25340.0,-1.274063097701594
24639.0,25327.0,-1.3350932065482202
24649.0,25317.0,-1.3931016012554116
24659.0,25311.0,-1.4470674680194395
24669.0,25309.0,-1.496061619078259
24679.0,25307.0,-1.5392741123774094
24689.0,25296.0,-1.5760359541597286
24699.0,25300.0,-1.6058339846525862
24709.0,25311.0,-1.62831829003673
24719.0,25314.0,-1.6433019301711362
24729.0,25311.0,-1.6507536021286477
24739.0,25316.0,-1.650784480313343
24749.0,25323.0,-1.6436304653583271
24759.0,25326.0,-1.629630902467761
24769.0,25321.0,-1.6092049203849
24779.0,25326.0,-1.5828265841867877
24790.0,25334.0,-1.5509997966743205
24799.0,25334.0,-1.514233698778223
24809.0,25324.0,-1.4730194180752374
24819.0,25346.0,-1.4278089850928877
24829.0,25334.0,-1.3789969776906135
24839.0,25347.0,-1.3269054092178003
24849.0,25338.0,-1.2717725123925945
24859.0,25343.0,-1.2137459475458934
24870.0,25344.0,-1.1528806061733359
24879.0,25347.0,-1.0891409219422246
24889.0,25345.0,-1.0224075577357599
24899.0,25333.0,-0.9524882968840953
24909.0,25333.0,-0.8791326081708419
24919.0,25350.0,-0.8020487994229275
24929.0,25346.0,-0.7209225987084287
24939.0,25339.0,-0.6354366072357311
24950.0,25341.0,-0.5452904849149878
24959.0,25344.0,-0.4502213797583189
24969.0,25353.0,-0.35002369524046684
24979.0,25338.0,-0.24456745527582596
24989.0,25360.0,-0.13381485895538028
24999.0,25360.0,-0.017834704678570283
25009.0,25364.0,0.10318545738440509
25019.0,25360.0,0.22892923172065321
25030.0,25364.0,0.3589431430499571
25040.0,25362.0,0.4926305112088066
25049.0,25367.0,0.6292480398086375
25059.0,25367.0,0.767905744527738
25069.0,25364.0,0.907570717428511
25079.0,25370.0,1.0470751522488608
25089.0,25378.0,1.1851290281248028
25099.0,25379.0,1.3203376221400283
25110.0,25379.0,1.451223580142649
25120.0,25383.0,1.5762530096018958
25129.0,25393.0,1.6938650978181775
25139.0,25392.0,1.8025047294054624
25149.0,25390.0,1.9006573213524667
25159.0,25403.0,1.986884948165086
25169.0,25406.0,2.0598629704170413
25179.0,25424.0,2.1184165411683678
25190.0,25412.0,2.1615563349706957
25200.0,25429.0,2.1885127078446294
25210.0,25449.0,2.1987673605649882
25219.0,25497.0,2.192081445998864
25229.0,25551.0,2.1685189286813453
25239.0,25625.0,2.1284638837183167
25249.0,25694.0,2.0726303216349438
25259.0,25774.0,2.00206305161978
25270.0,25885.0,1.9181280532702634
25280.0,26013.0,1.8224908216281155
25290.0,26181.0,1.7170811867091267
25299.0,26272.0,1.604043190905984
25309.0,25660.0,1.485668738727643
25319.0,22443.0,1.3643146351140896
25329.0,10480.0,1.242306446162591
25339.0,3823.0,1.121839275199729
25349.0,2168.0,1.0048891562320288
25359.0,1549.0,0.8931449338974837
25369.0,1232.0,0.7879636180847663
25380.0,997.0,0.6903481659033963
25390.0,827.0,0.6009455301340141
25400.0,704.0,0.5200624788394124
25410.0,620.0,0.4476964162143051
25420.0,545.0,0.3835782196027711
