timestamp_ms,ir_value,ir_filtered
6947.0,24997.0,-0.2708556147043519
6956.0,25024.0,-0.2219119530588116
6967.0,25028.0,-0.1785417976734181
6977.0,25048.0,-0.14462631101850332
6987.0,25066.0,-0.12355657559545523
6996.0,25085.0,-0.11803660172603368
7007.0,25092.0,-0.12991581308603578
7017.0,25110.0,-0.16006155089265525
7026.0,25111.0,-0.20828201544071417
7036.0,25086.0,-0.2733091272993738
7047.0,25019.0,-0.3528483830405531
7057.0,24953.0,-0.44369754039950365
7066.0,24884.0,-0.5419280718782324
7076.0,24828.0,-0.6431155990310384
7087.0,24764.0,-0.7426008892679616
7097.0,24727.0,-0.835761862189896
7106.0,24673.0,-0.9182780517979618
7116.0,24641.0,-0.9863709062503403
7127.0,24623.0,-1.0370055963651679
7137.0,24618.0,-1.0680427377434105
7146.0,24626.0,-1.0783321529002825
7156.0,24643.0,-1.0677454157105155
7167.0,24653.0,-1.0371484712452925
7177.0,24689.0,-0.9883192164890345
7186.0,24720.0,-0.923817432699749
7196.0,24753.0,-0.8468164328730927
7207.0,24789.0,-0.7609074624045576
7217.0,24823.0,-0.6698888034069546
7226.0,24858.0,-0.5775515290908106
7236.0,24887.0,-0.48747331444918907
7247.0,24929.0,-0.40283088874049067
7257.0,24955.0,-0.32624080165294694
7266.0,24974.0,-0.2596372708983291
7276.0,24979.0,-0.20419446329816332
7287.0,24967.0,-0.16029786302366253
7297.0,24960.0,-0.12756539934360098
7306.0,24943.0,-0.10491466066974017
7316.0,24931.0,-0.0906689643315725
7327.0,24925.0,-0.08269293147461745
7337.0,24904.0,-0.07854746820008189
7346.0,24903.0,-0.07565417847121973
7357.0,24891.0,-0.07145971304873995
7367.0,24898.0,-0.06359132546612035
7377.0,24890.0,-0.049996166151551884
7386.0,24905.0,-0.02905843091038677
7397.0,24911.0,0.00030993601423752535
7407.0,24926.0,0.038607700413532835
7417.0,24939.0,0.08571309735763549
7426.0,24966.0,0.14088267170998092
7437.0,24974.0,0.20277884589478917
7447.0,24993.0,0.2695239440480648
7457.0,25012.0,0.33877799700426503
7466.0,25031.0,0.407837647170765
7477.0,25043.0,0.47375326435720044
7487.0,25071.0,0.5334608672577437
7496.0,25080.0,0.5839248547573557
7506.0,25096.0,0.6222868535558711
7517.0,25103.0,0.6460153332752215
7527.0,25117.0,0.6530502962496826
7536.0,25133.0,0.6419370113043914
7546.0,25143.0,0.6119419100600059
7557.0,25151.0,0.5631425052414661
7567.0,25165.0,0.49648217266192946
7576.0,25139.0,0.4137803859805948
7586.0,25094.0,0.31769012100628663
7597.0,25018.0,0.2115978707848255
7607.0,24954.0,0.0994684533565364
7616.0,24899.0,-0.014355497226064986
7626.0,24835.0,-0.12538396288101047
7637.0,24785.0,-0.22922248934279824
7647.0,24742.0,-0.32181051835481533
7656.0,24713.0,-0.399639220715924
7667.0,24677.0,-0.4599350183024691
7677.0,24684.0,-0.5007977891549611
7687.0,24670.0,-0.5212859930947535
7696.0,24694.0,-0.5214446700502147
7707.0,24702.0,-0.502276238824008
7717.0,24734.0,-0.46565764451606495
7727.0,24770.0,-0.41421041220555543
7736.0,24802.0,-0.3511327332656153
7747.0,24830.0,-0.28000478028927117
7757.0,24869.0,-0.20457948431063497
7766.0,24896.0,-0.1285708451538693
7776.0,24930.0,-0.055451128571925475
7787.0,24957.0,0.011732492580532123
7797.0,24988.0,0.0705122405200335
7806.0,24993.0,0.11911654677792279
7816.0,25005.0,0.15654264028433737
7827.0,24992.0,0.18258081619097805
7837.0,24983.0,0.19778978815484893
7846.0,24964.0,0.20342624449027563
7856.0,24943.0,0.20133506878892565
7867.0,24936.0,0.19380919786030062
7877.0,24914.0,0.18342943362306596
7886.0,24912.0,0.17289466390780375
7896.0,24894.0,0.16485229158602568
7907.0,24893.0,0.1617377466568953
7917.0,24891.0,0.16563095555665863
7926.0,24901.0,0.17813639971499506
7936.0,24910.0,0.2002916776795058
7947.0,24929.0,0.23250739268090492
7957.0,24942.0,0.27453914374032046
7966.0,24959.0,0.3254907774732377
7976.0,24976.0,0.3838470512929494
7987.0,24999.0,0.447533371685143
7997.0,25015.0,0.5139999086084736
8006.0,25038.0,0.5803269053314036
8017.0,25045.0,0.6433475705383082
8027.0,25074.0,0.6997847482434015
8037.0,25077.0,0.7463974365824101
8046.0,25093.0,0.780132895177272
8057.0,25103.0,0.7982796346767959
8067.0,25124.0,0.7986160771915748
8076.0,25128.0,0.779548731471748
8086.0,25143.0,0.7402323341552646
8097.0,25149.0,0.6806632131491481
8107.0,25151.0,0.6017364859865952
8116.0,25126.0,0.5052577049214121
8126.0,25074.0,0.3939009559617315
8137.0,24992.0,0.27110938781564836
8147.0,24928.0,0.14094083832113005
8156.0,24863.0,0.007868697553188603
8166.0,24804.0,-0.12344661448187345
8177.0,24750.0,-0.2483985148517835
8187.0,24702.0,-0.3626711696280675
8196.0,24664.0,-0.46245772888386616
8206.0,24637.0,-0.5446471158111115
8217.0,24615.0,-0.606969034054448
8227.0,24613.0,-0.6480897416442734
8236.0,24620.0,-0.6676543563874058
8246.0,24624.0,-0.6662749382578711
8257.0,24648.0,-0.6454669875893227
8267.0,24664.0,-0.6075397240049556
8276.0,24703.0,-0.5554475056226096
8286.0,24724.0,-0.49261138993509457
8297.0,24761.0,-0.4227211594066028
8307.0,24785.0,-0.34952879529195136
8316.0,24835.0,-0.27664435195003756
8326.0,24852.0,-0.20734495534957836
8337.0,24884.0,-0.14440740054328235
8347.0,24900.0,-0.0899739434759557
8356.0,24913.0,-0.04545900722151393
8366.0,24904.0,-0.011501991355134984
8377.0,24907.0,0.012031652209704537
8387.0,24878.0,0.026002402836709904
8396.0,24872.0,0.0319065280762765
8406.0,24843.0,0.0317516008213194
8417.0,24846.0,0.027907533883213563
8427.0,24828.0,0.02294373184489712
8436.0,24822.0,0.01946239055084507
8446.0,24816.0,0.019936833718003106
8457.0,24820.0,0.026562713546918578
8467.0,24824.0,0.04112874397649524
8476.0,24835.0,0.06491204425310601
8486.0,24845.0,0.09860138842761634
8497.0,24860.0,0.14225010186598086
8507.0,24878.0,0.19525913703419262
8516.0,24890.0,0.2563899136166805
8526.0,24912.0,0.32380578506845087
8537.0,24938.0,0.3951404463740424
8547.0,24964.0,0.4675908880109281
8556.0,24975.0,0.5380314186502739
8566.0,24991.0,0.6031444157494783
8577.0,25010.0,0.6595634538740152
8587.0,25020.0,0.7040248125845838
8596.0,25037.0,0.7335231807155466
8606.0,25043.0,0.745466623338392
8617.0,25065.0,0.7378249691562935
8627.0,25072.0,0.7092646953420432
8636.0,25080.0,0.6592620564822527
8646.0,25081.0,0.5881850808559538
8657.0,25074.0,0.49733475868429555
8666.0,25025.0,0.38893661935890517
8676.0,24966.0,0.26607656149912323
8686.0,24890.0,0.13257996683670525
8697.0,24830.0,-0.0071600660401052426
8706.0,24765.0,-0.1483936056680206
8716.0,24697.0,-0.28624890994446034
8726.0,24648.0,-0.4159757741744245
8737.0,24601.0,-0.533181764541952
8746.0,24559.0,-0.634047108924927
8756.0,24548.0,-0.715506131376722
8766.0,24518.0,-0.77538590817298
8777.0,24506.0,-0.8124958972101286
8786.0,24505.0,-0.826665001977174
8796.0,24512.0,-0.8187246149550902
8806.0,24532.0,-0.7904383607238209
8817.0,24581.0,-0.7443821444065494
8826.0,24606.0,-0.6837816183343457
8836.0,24646.0,-0.612317674599091
8846.0,24682.0,-0.5339128415153782
8857.0,24719.0,-0.45251192696408804
8866.0,24752.0,-0.37186969692122873
8876.0,24785.0,-0.29535751605804
8886.0,24801.0,-0.22579961850475858
8897.0,24819.0,-0.16534777796284117
8906.0,24822.0,-0.11540053589446168
8916.0,24816.0,-0.07656999995591547
8926.0,24812.0,-0.04869586225901298
8937.0,24801.0,-0.03090306016915531
8946.0,24788.0,-0.021696890663967603
8956.0,24780.0,-0.019087675338348615
8966.0,24762.0,-0.020736120471448734
8977.0,24759.0,-0.02411013759001985
8986.0,24752.0,-0.026644046853498325
8996.0,24761.0,-0.02589188362603601
9006.0,24756.0,-0.019668018016863638
9017.0,24763.0,-0.006170050306080193
9026.0,24765.0,0.01591972117546489
9036.0,24782.0,0.04735717698691453
9046.0,24787.0,0.08828578886077547
9057.0,24814.0,0.13821378279056776
9066.0,24824.0,0.1960191810615489
9076.0,24841.0,0.25998187144171436
9086.0,24858.0,0.3278412287198043
9097.0,24879.0,0.3968776036777096
9106.0,24885.0,0.46401580827795386
9116.0,24910.0,0.5259483581756204
9126.0,24926.0,0.5792757957262856
9137.0,24947.0,0.6206606345106394
9146.0,24948.0,0.646990168129488
9156.0,24974.0,0.6555421681550095
9166.0,24979.0,0.6441466801059544
9177.0,24998.0,0.6113361575769054
9186.0,25000.0,0.5564748196045872
9196.0,25011.0,0.4798569459441656
9206.0,24992.0,0.38276337492130513
9217.0,24960.0,0.2674661725186941
9226.0,24894.0,0.1371740763848175
9236.0,24826.0,-0.004083606599493997
9246.0,24754.0,-0.1516302581214391
9257.0,24691.0,-0.30036164453582953
9266.0,24628.0,-0.4449972364751427
9276.0,24569.0,-0.5803468153173178
9286.0,24510.0,-0.7015760917313217
9297.0,24474.0,-0.8044556685421638
9306.0,24427.0,-0.8855786617478334
9316.0,24393.0,-0.9425338552103348
9326.0,24374.0,-0.9740231361357888
9337.0,24403.0,-0.9799141584891576
9346.0,24435.0,-0.9612229879434748
9356.0,24476.0,-0.9200277296292275
9366.0,24516.0,-0.8593211363932276
9377.0,24563.0,-0.7828152510372722
9386.0,24605.0,-0.6947134415618196
9396.0,24647.0,-0.5994656783148026
9406.0,24677.0,-0.5015223422011414
9417.0,24720.0,-0.40510040455665985
9427.0,24758.0,-0.31397386435435665
9436.0,24777.0,-0.2312985442587959
9446.0,24792.0,-0.15947964312191817
9457.0,24806.0,-0.10008794711316515
9467.0,24794.0,-0.053827207535784675
9476.0,24792.0,-0.020551641740292156
9486.0,24785.0,0.0006707771399695765
9497.0,24777.0,0.011456227287954406
9506.0,24760.0,0.013972638246722369
9516.0,24753.0,0.010786118145919964
9526.0,24742.0,0.004695678618634277
9537.0,24742.0,-0.0014343762962287464
9546.0,24737.0,-0.0048358993378295086
9556.0,24738.0,-0.0029850922501986673
9566.0,24743.0,0.006268206064599078
9577.0,24765.0,0.024594409342685662
9586.0,24768.0,0.053103926655716116
9596.0,24787.0,0.0922936814340829
9606.0,24798.0,0.14202013528081484
9617.0,24824.0,0.20149814179738715
9626.0,24839.0,0.2693247093420675
9636.0,24860.0,0.3435262812046025
9646.0,24873.0,0.42162779100215486
9657.0,24900.0,0.5007417936286069
9666.0,24919.0,0.5776760494518851
9676.0,24933.0,0.649057573161539
9686.0,24951.0,0.711470524379591
9697.0,24981.0,0.7616047870252134
9706.0,24991.0,0.7964112932507558
9716.0,25008.0,0.8132587462809618
9726.0,25017.0,0.8100850402777617
9737.0,25047.0,0.7855358521335545
9746.0,25043.0,0.7390819855937574
9756.0,25055.0,0.6711058419307803
9766.0,25041.0,0.5829468371948806
9777.0,25015.0,0.47689651006551065
9786.0,24945.0,0.3561366852420288
9796.0,24882.0,0.22461879158191556
9806.0,24805.0,0.08688908295523558
9817.0,24751.0,-0.05212890696519838
9826.0,24683.0,-0.1873791546922103
9836.0,24628.0,-0.313928359271871
9846.0,24587.0,-0.42721519059998997
9857.0,24548.0,-0.523278438817695
9866.0,24524.0,-0.5989509721666152
9876.0,24506.0,-0.6520091334213552
9886.0,24497.0,-0.6812701196747458
9897.0,24492.0,-0.6866326930372395
9906.0,24512.0,-0.6690592016072673
9916.0,24544.0,-0.6304996268318742
9927.0,24592.0,-0.573761843474876
9937.0,24624.0,-0.5023364974656307
9946.0,24671.0,-0.4201886389673083
9956.0,24703.0,-0.33153015063736996
9967.0,24748.0,-0.2405870541613045
9977.0,24782.0,-0.15137490474217927
9986.0,24817.0,-0.06749438892428339
9996.0,24839.0,0.008042045523883993
10007.0,24865.0,0.0729434589910564
10017.0,24862.0,0.12572687701184354
10026.0,24859.0,0.16575319142635359
10036.0,24852.0,0.1932123981450721
10047.0,24836.0,0.20906191616082972
10057.0,24824.0,0.21492486534534155
10066.0,24813.0,0.21295715403677717
10076.0,24798.0,0.20569316253358252
10087.0,24795.0,0.19587986235707106
10096.0,24781.0,0.18630861319735975
10106.0,24776.0,0.17965295666989717
10116.0,24785.0,0.17831969811969048
10127.0,24787.0,0.18431929111969605
10136.0,24795.0,0.19915977745349775
10146.0,24804.0,0.223766706810487
10156.0,24813.0,0.25843022397828047
10167.0,24828.0,0.3027798366583162
10176.0,24849.0,0.3557868276708071
10186.0,24850.0,0.41579363514141643
10196.0,24873.0,0.4805690149562526
10207.0,24889.0,0.5473876904232347
10216.0,24907.0,0.613133056598099
10226.0,24916.0,0.6744208362000457
10236.0,24945.0,0.7277407270298241
10247.0,24941.0,0.7696123662920427
10256.0,24968.0,0.7967511654138398
10266.0,24971.0,0.8062386999283163
10277.0,24997.0,0.7956912967806045
10287.0,24992.0,0.763419012868054
10296.0,25017.0,0.7085656426155178
10306.0,25009.0,0.6312192427108089
10317.0,25015.0,0.5324820260375379
10327.0,24974.0,0.41448863768954736
10336.0,24916.0,0.28036376407245367
10346.0,24842.0,0.1341146988502534
10357.0,24766.0,-0.019538515067627066
10366.0,24700.0,-0.17538558539953253
10376.0,24626.0,-0.3279862949271767
10386.0,24547.0,-0.4719514359864383
10397.0,24500.0,-0.6022262709543332
10406.0,24433.0,-0.7143583023822465
10416.0,24396.0,-0.8047320074027429
10426.0,24351.0,-0.8707550787508134
10437.0,24352.0,-0.9109831936112702
10446.0,24370.0,-0.9251738174083713
10456.0,24400.0,-0.9142649494235326
10466.0,24446.0,-0.8802816885031559
10477.0,24496.0,-0.8261802750343583
10486.0,24528.0,-0.7556442784322335
10496.0,24570.0,-0.6728501589241178
10506.0,24607.0,-0.5822194545105668
10517.0,24642.0,-0.48817319364170203
10526.0,24666.0,-0.39490206383167675
10536.0,24694.0,-0.30616367842518305
10546.0,24709.0,-0.2251157333069437
10557.0,24728.0,-0.1541911317641535
10566.0,24738.0,-0.0950186445156934
10576.0,24739.0,-0.04839043738484792
10586.0,24726.0,-0.014275605546589704
10597.0,24726.0,0.008123628964611109
10606.0,24717.0,0.02027890677248688
10616.0,24705.0,0.024213427358456385
10626.0,24695.0,0.02235848888200082
10637.0,24679.0,0.017397238003620197
10646.0,24687.0,0.012104118761494783
10656.0,24660.0,0.009188135549506605
10666.0,24689.0,0.011147059598894803
10677.0,24684.0,0.020138312849188537
10686.0,24692.0,0.03787044302342735
10696.0,24699.0,0.06551729771797325
10706.0,24717.0,0.10365604126459456
10717.0,24721.0,0.15222981166511576
10726.0,24744.0,0.21053537900957683
10736.0,24756.0,0.27723571490275767
10747.0,24779.0,0.3503970428550043
10757.0,24795.0,0.42754950894779636
10766.0,24814.0,0.5057701288752937
10776.0,24829.0,0.5817863078619367
10787.0,24852.0,0.6520979609839619
10797.0,24860.0,0.7131158657081069
10806.0,24876.0,0.7613132601593877
10816.0,24887.0,0.7933870229930282
10827.0,24910.0,0.8064239675063153
10836.0,24923.0,0.7980663998359954
10846.0,24932.0,0.766669086265912
10856.0,24940.0,0.7114378983848136
10867.0,24950.0,0.6325393123903605
10876.0,24933.0,0.5311695365379063
10886.0,24903.0,0.40957240844211523
10896.0,24842.0,0.27099733503100704
10907.0,24783.0,0.11959314014344574
10916.0,24702.0,-0.03976009489818472
10926.0,24634.0,-0.20167295305125346
10936.0,24559.0,-0.36050927366606383
10947.0,24482.0,-0.5106731925399779
10956.0,24420.0,-0.6469027214590595
10966.0,24342.0,-0.7645511899580508
10976.0,24281.0,-0.8598376753989979
10987.0,24257.0,-0.9300479447803305
10996.0,24264.0,-0.973669382101324
11006.0,24280.0,-0.9904484297668985
11016.0,24325.0,-0.9813670458863247
11027.0,24366.0,-0.9485431750086688
11036.0,24402.0,-0.8950670459896749
11046.0,24437.0,-0.8247892335256348
11056.0,24486.0,-0.7420776526982507
11067.0,24523.0,-0.6515600180940089
11076.0,24553.0,-0.557867245303951
11086.0,24579.0,-0.4653919234284821
11096.0,24616.0,-0.3780737534923209
11107.0,24630.0,-0.29922118091919403
11116.0,24651.0,-0.2313761635591139
11126.0,24649.0,-0.17622685059204152
11136.0,24656.0,-0.1345702847672483
11147.0,24643.0,-0.10632423177188462
11156.0,24634.0,-0.09058440539576987
11166.0,24622.0,-0.08572095233451026
11176.0,24622.0,-0.08950631680502562
11187.0,24605.0,-0.09926591748450757
11196.0,24594.0,-0.1120433218232179
11206.0,24577.0,-0.1247719202229949
11216.0,24573.0,-0.13444498892943202
11227.0,24569.0,-0.13827603840421374
11236.0,24572.0,-0.13384215246764972
11246.0,24579.0,-0.11920457237760108
11256.0,24591.0,-0.0930025650465451
11267.0,24603.0,-0.05451828530660882
11276.0,24630.0,-0.0037117980712311656
11286.0,24649.0,0.05877327144267992
11296.0,24681.0,0.131631736589769
11307.0,24695.0,0.2129437191054623
11316.0,24720.0,0.3002431619485782
11326.0,24736.0,0.3906050914775843
11336.0,24776.0,0.4807493940391037
11347.0,24787.0,0.5671590116901429
11356.0,24803.0,0.6462099279139978
11366.0,24819.0,0.714310002002054
11376.0,24830.0,0.7680440664208886
11387.0,24850.0,0.8043228892963978
11396.0,24863.0,0.8205328471682563
11406.0,24879.0,0.8146815929931638
11417.0,24895.0,0.7855331284574489
11426.0,24902.0,0.732723880023686
11436.0,24913.0,0.6568499110867886
11446.0,24908.0,0.5595145418299245
11457.0,24872.0,0.44332580582783415
11466.0,24808.0,0.31183523995228146
11476.0,24753.0,0.16941436851922453
11486.0,24671.0,0.02107212744929073
11497.0,24609.0,-0.12777697135449295
11506.0,24536.0,-0.2715795149498688
11516.0,24468.0,-0.40492764113413965
11526.0,24409.0,-0.5228430027786757
11537.0,24345.0,-0.6210417005317287
11546.0,24298.0,-0.6961620083067259
11556.0,24286.0,-0.745937885165648
11566.0,24317.0,-0.7693041681367944
11577.0,24338.0,-0.7664252488001185
11586.0,24384.0,-0.7386473755634323
11596.0,24413.0,-0.6883825231240668
11606.0,24467.0,-0.6189366647512238
11617.0,24505.0,-0.5342974575078241
11626.0,24551.0,-0.43889705921433714
11636.0,24578.0,-0.3373655699485368
11646.0,24621.0,-0.23428929461375728
11657.0,24651.0,-0.13398589310740514
11666.0,24685.0,-0.040306329115957114
11676.0,24708.0,0.043528225816009715
11687.0,24727.0,0.11504806814948113
11696.0,24733.0,0.17261081107611412
11706.0,24723.0,0.2154295863083988
11716.0,24724.0,0.24355489264695543
11727.0,24716.0,0.25781453864114584
11736.0,24696.0,0.2597184243128282
11746.0,24680.0,0.2513361845001852
11756.0,24679.0,0.23515656982048544
11767.0,24658.0,0.21393775652675961
11776.0,24660.0,0.19055702583801812
11786.0,24650.0,0.1678668299282042
11796.0,24652.0,0.148562795096398
11807.0,24650.0,0.13506775851874586
11816.0,24660.0,0.12943451577160706
11826.0,24657.0,0.1332686986784454
11836.0,24675.0,0.1476721876963537
11847.0,24684.0,0.17320673433146705
11856.0,24703.0,0.20987685160418307
11866.0,24711.0,0.25713043374625755
11876.0,24726.0,0.31387534770515124
11887.0,24741.0,0.3785106496619101
11896.0,24760.0,0.44897174508050036
11906.0,24781.0,0.5227891425112717
11917.0,24791.0,0.5971603154034427
11926.0,24804.0,0.669034009501695
11936.0,24818.0,0.7352065241947262
11946.0,24832.0,0.7924297913477144
11957.0,24850.0,0.8375307946648495
11966.0,24856.0,0.8675408069973802
11976.0,24877.0,0.8798314804794517
11986.0,24883.0,0.8722533473979499
11997.0,24895.0,0.8432707579619717
12006.0,24909.0,0.79208570284725
12016.0,24913.0,0.7187414758474964
12026.0,24922.0,0.6241958189183905
12037.0,24892.0,0.5103524666517526
12046.0,24848.0,0.3800408729098311
12056.0,24771.0,0.23693745289809906
12066.0,24722.0,0.085427858876994
12077.0,24637.0,-0.06958332930601696
12086.0,24588.0,-0.22290393771865985
12096.0,24509.0,-0.36931214095493653
12106.0,24455.0,-0.5038252705729349
12117.0,24374.0,-0.6219630637654591
12126.0,24318.0,-0.7199883165777211
12136.0,24282.0,-0.7951074369176178
12147.0,24285.0,-0.8456143296312718
12156.0,24305.0,-0.8709650777349257
12166.0,24333.0,-0.8717780942459572
12176.0,24365.0,-0.8497625867694204
12187.0,24409.0,-0.8075846758598539
12196.0,24440.0,-0.7486843970725187
12206.0,24485.0,-0.6770586286853247
12216.0,24517.0,-0.5970253684319605
12227.0,24554.0,-0.5129841477322514
12236.0,24579.0,-0.429186060385538
12246.0,24601.0,-0.349525011401505
12256.0,24631.0,-0.2773594550785083
12267.0,24646.0,-0.21537153792578134
12276.0,24654.0,-0.1654685991319348
12286.0,24653.0,-0.12873005825827247
12296.0,24654.0,-0.10540024713865888
12307.0,24637.0,-0.09492496389619423
12316.0,24634.0,-0.09602710829057982
12326.0,24612.0,-0.10681493072370898
12336.0,24602.0,-0.12491517275639877
12347.0,24588.0,-0.14762268782560062
12356.0,24586.0,-0.17205805315983047
12366.0,24559.0,-0.19532527051278026
12376.0,24564.0,-0.21466251651015872
12387.0,24549.0,-0.22757953704895595
12396.0,24564.0,-0.23197597482893806
12406.0,24564.0,-0.22623625403340827
12416.0,24588.0,-0.20929853739236506
12427.0,24592.0,-0.18069722417962913
12436.0,24620.0,-0.14058002857719773
12446.0,24627.0,-0.08970161353838076
12456.0,24659.0,-0.02939613390312404
12467.0,24667.0,0.03846887002889584
12476.0,24694.0,0.11155485621466246
12486.0,24699.0,0.18712886763465797
12496.0,24722.0,0.262152827538454
12507.0,24732.0,0.33338468921366526
12516.0,24745.0,0.39749091490693245
12526.0,24750.0,0.4511696873714934
12536.0,24777.0,0.4912839364091388
12547.0,24788.0,0.5150024273013251
12556.0,24806.0,0.5199453789731877
12566.0,24819.0,0.5043287765340776
12576.0,24830.0,0.4670995781621167
12586.0,24845.0,0.408052588084087
12596.0,24854.0,0.32791860619194846
12606.0,24848.0,0.228412581456731
12617.0,24812.0,0.11223057452963599
12626.0,24754.0,-0.017013369311675474
12636.0,24693.0,-0.15491412570983365
12646.0,24630.0,-0.29646286375058184
12657.0,24558.0,-0.43628511420435534
12666.0,24482.0,-0.5689151920829052
12676.0,24407.0,-0.6890894805975837
12686.0,24323.0,-0.792038507096108
12697.0,24283.0,-0.8737558119783863
12706.0,24267.0,-0.9312214534385327
12716.0,24278.0,-0.9625612174586162
12726.0,24303.0,-0.9671295609371964
12737.0,24335.0,-0.9455129935982912
12746.0,24371.0,-0.8994582944069245
12756.0,24416.0,-0.8317352893951722
12766.0,24460.0,-0.7459470186059648
12777.0,24513.0,-0.6463017773956244
12786.0,24556.0,-0.5373623459536381
12796.0,24602.0,-0.42378782933109244
12806.0,24648.0,-0.31008281735404974
12817.0,24690.0,-0.20036721935432647
12826.0,24727.0,-0.09817854853554585
12836.0,24743.0,-0.006316634919866535
12846.0,24769.0,0.07326174327897023
12857.0,24764.0,0.13949415367816576
12866.0,24772.0,0.19220928031806597
12876.0,24752.0,0.23207234905433216
12886.0,24753.0,0.2604857184300594
12897.0,24726.0,0.27945387045901204
12906.0,24736.0,0.29142379113443906
12916.0,24721.0,0.29911226933209734
12926.0,24721.0,0.30533093483035567
12937.0,24731.0,0.31281836616117514
12946.0,24731.0,0.32408685553834526
12956.0,24736.0,0.34128954970670466
12966.0,24762.0,0.36611192634503387
12976.0,24771.0,0.3996900270082794
12986.0,24791.0,0.4425562316592689
12996.0,24804.0,0.4946119003357819
13007.0,24829.0,0.5551255447409085
13016.0,24844.0,0.6227550611827752
13026.0,24870.0,0.6955923663577306
13036.0,24890.0,0.7712284783339146
13047.0,24901.0,0.8468368496188773
13056.0,24917.0,0.9192727839176312
13066.0,24930.0,0.9851871719730692
13076.0,24944.0,1.0411531715279752
13087.0,24953.0,1.0838042658298213
13096.0,24967.0,1.1099813605796662
13106.0,24971.0,1.1168855185014832
13116.0,24993.0,1.1022316405842225
13127.0,24992.0,1.0643967772932224
13136.0,25000.0,1.0025549173032446
13146.0,25011.0,0.9167885243292017
13156.0,24998.0,0.8081660357098558
13166.0,24971.0,0.678774141426515
13176.0,24923.0,0.5316948212273439
13186.0,24851.0,0.3709207628577468
13197.0,24775.0,0.2012085605311193
13206.0,24699.0,0.027875653341942343
13216.0,24620.0,-0.1434472641689244
13226.0,24554.0,-0.307092798380664
13237.0,24481.0,-0.4576450477105674
13246.0,24417.0,-0.5902217131952066
13256.0,24338.0,-0.7007325724985213
13266.0,24297.0,-0.7860968737536298
13277.0,24275.0,-0.8444027365543744
13286.0,24302.0,-0.874994329831687
13296.0,24330.0,-0.8784787894309675
13306.0,24377.0,-0.8566536050058159
13317.0,24409.0,-0.8123636802548814
13326.0,24456.0,-0.749302946280402
13336.0,24489.0,-0.6717777551157919
13346.0,24535.0,-0.5844493440468037
13357.0,24558.0,-0.49207162571489904
13366.0,24602.0,-0.39923894069755433
13376.0,24624.0,-0.31015639513815413
13386.0,24651.0,-0.22844328679867068
13397.0,24670.0,-0.15697799906886906
13406.0,24681.0,-0.09779044445289074
13416.0,24678.0,-0.05200560194481598
13426.0,24677.0,-0.019838870004770342
13437.0,24662.0,-0.0006408760273520494
13446.0,24652.0,0.007013528420264499
13456.0,24637.0,0.005199620851822508
13466.0,24633.0,-0.003510562149042783
13477.0,24609.0,-0.016219935688595154
13486.0,24603.0,-0.029887209920418212
13496.0,24600.0,-0.04150796914399298
13506.0,24592.0,-0.04828767182014306
13516.0,24580.0,-0.047799374886525116
13526.0,24588.0,-0.03812007946354488
13536.0,24591.0,-0.017940309463955632
13546.0,24600.0,0.013357467073783772
13556.0,24613.0,0.05565438807987454
13566.0,24636.0,0.10808591764126436
13576.0,24643.0,0.16906751149065363
13586.0,24673.0,0.23635373220206746
13596.0,24690.0,0.3071283373353824
13606.0,24709.0,0.3781220528436296
13616.0,24727.0,0.4457539625212773
13626.0,24739.0,0.506291938734429
13636.0,24752.0,0.5560273637032
13646.0,24782.0,0.5914591369587991
13656.0,24791.0,0.6094810899310055
13667.0,24807.0,0.6075653097899034
13676.0,24824.0,0.5839322201620966
13686.0,24831.0,0.537697182681608
13696.0,24846.0,0.4689826397018697
13707.0,24831.0,0.3789843336575076
13716.0,24801.0,0.26998065003377175
13726.0,24742.0,0.145276707472206
13736.0,24681.0,0.009079941276336163
13747.0,24601.0,-0.1336893066398428
13756.0,24535.0,-0.2776420494222423
13766.0,24447.0,-0.41720444724014166
13776.0,24387.0,-0.546922393812529
13787.0,24292.0,-0.6617661993131018
13796.0,24235.0,-0.7574136650212284
13806.0,24209.0,-0.8304897558791003
13816.0,24219.0,-0.8787432137373056
13827.0,24229.0,-0.9011464087824262
13836.0,24273.0,-0.8979135883046455
13846.0,24290.0,-0.8704413398004968
13856.0,24350.0,-0.8211813643254856
13867.0,24371.0,-0.7534593718210859
13876.0,24420.0,-0.6712556737497252
13886.0,24448.0,-0.5789632946138702
13896.0,24494.0,-0.48113852249665007
13907.0,24519.0,-0.3822574164239067
13916.0,24553.0,-0.2864902797141424
13926.0,24572.0,-0.1975043193013338
13936.0,24601.0,-0.118302558957896
13947.0,24613.0,-0.0511048908025856
13956.0,24625.0,0.0027248196008204063
13966.0,24615.0,0.04270367441305454
13976.0,24620.0,0.06920730077143517
13987.0,24600.0,0.08340335301436028
13996.0,24598.0,0.08714668220391375
14006.0,24575.0,0.08284356905213573
14016.0,24576.0,0.07329343759336818
14027.0,24564.0,0.06151681193224308
14036.0,24551.0,0.05057789840059454
14046.0,24537.0,0.043409537617568175
14056.0,24542.0,0.042647984502816365
14067.0,24535.0,0.05048473381766209
14076.0,24541.0,0.06854168629179073
14086.0,24547.0,0.09777453150173077
14096.0,24563.0,0.1384078816720021
14106.0,24574.0,0.18990438163482085
14116.0,24589.0,0.2509686508929769
14126.0,24614.0,0.3195857640532495
14136.0,24625.0,0.39309308145916494
14146.0,24651.0,0.4682833753235138
14157.0,24670.0,0.5415363596897173
14166.0,24689.0,0.608974922973606
14176.0,24707.0,0.6666414564112892
14186.0,24732.0,0.7106887184532655
14197.0,24741.0,0.7375786471041785
14206.0,24762.0,0.7442813418612874
14216.0,24766.0,0.7284653149688484
14226.0,24792.0,0.6886692045069855
14237.0,24796.0,0.6244441694598627
14246.0,24807.0,0.536455043913362
14256.0,24766.0,0.4265277695479208
14266.0,24738.0,0.29763206039576734
14277.0,24661.0,0.15379247748061348
14286.0,24600.0,-7.261516313522207e-05
14296.0,24520.0,-0.1583779310513648
14306.0,24433.0,-0.3151516645592405
14316.0,24355.0,-0.4643523945404917
14327.0,24254.0,-0.6002019177296025
14336.0,24175.0,-0.7175107512067513
14346.0,24126.0,-0.8119714023892831
14356.0,24122.0,-0.8803951823207896
14367.0,24123.0,-0.9208730769973256
14376.0,24161.0,-0.9328497863657569
14386.0,24189.0,-0.9171097802407326
14396.0,24223.0,-0.8756823754510805
14406.0,24283.0,-0.8116782709568849
14417.0,24322.0,-0.7290730408838821
14426.0,24373.0,-0.632454803981501
14436.0,24401.0,-0.5267538799172218
14446.0,24449.0,-0.41697120345499517
14457.0,24479.0,-0.3079199696207158
14466.0,24519.0,-0.20399256962526438
14476.0,24530.0,-0.10896280507181456
14486.0,24559.0,-0.025831147539139423
14496.0,24571.0,0.043281869527039156
14506.0,24568.0,0.0971917430572866
14516.0,24577.0,0.13565565754743159
14526.0,24570.0,0.15933020919309093
14536.0,24561.0,0.16968584903351877
14547.0,24540.0,0.16888432742666204
14556.0,24531.0,0.159626914468829
14566.0,24513.0,0.1449825542423211
14576.0,24515.0,0.12820569815805466
14586.0,24498.0,0.11255300279186055
14596.0,24490.0,0.10110687234484528
14606.0,24482.0,0.0966128345643108
14616.0,24493.0,0.10133718492350781
14626.0,24497.0,0.11695046472502169
14637.0,24506.0,0.14444064897955075
14646.0,24522.0,0.18405804236891754
14656.0,24529.0,0.23529257561046882
14666.0,24554.0,0.2968834281408028
14677.0,24564.0,0.3668603257665361
14686.0,24587.0,0.44261530722705633
14696.0,24603.0,0.5210032286062888
14706.0,24632.0,0.5984687476272756
14716.0,24665.0,0.6711966779335434
14727.0,24670.0,0.7352811811924933
14736.0,24694.0,0.786907848850311
14746.0,24708.0,0.8225421504946124
14756.0,24733.0,0.8391176008796002
14767.0,24737.0,0.8342162393892699
14776.0,24759.0,0.8062326782653011
14786.0,24758.0,0.7545118920223776
14796.0,24776.0,0.6794503092372531
14806.0,24765.0,0.5825494502462883
14816.0,24717.0,0.466411762273396
14826.0,24672.0,0.3346707520670325
14836.0,24603.0,0.1918527897372283
14846.0,24537.0,0.04317470804971548
14857.0,24452.0,-0.10571256815310175
14866.0,24377.0,-0.2490193117878106
14876.0,24291.0,-0.3811323441378023
14886.0,24208.0,-0.49692876398614594
14896.0,24161.0,-0.5920647424903063
14906.0,24140.0,-0.6632163593812985
14916.0,24158.0,-0.7082530632541428
14926.0,24165.0,-0.7263316612384834
14936.0,24207.0,-0.7179077471244544
14947.0,24232.0,-0.6846692843346661
14956.0,24278.0,-0.629402386059254
14966.0,24308.0,-0.5558024579752403
14976.0,24360.0,-0.4682453367238595
14986.0,24387.0,-0.3715333800043608
14996.0,24438.0,-0.2706311017573935
15006.0,24472.0,-0.17040414192151113
15016.0,24508.0,-0.0753743283065843
15026.0,24542.0,0.010497576604468954
15037.0,24555.0,0.08399136950278903
15046.0,24576.0,0.14276116365658234
15056.0,24580.0,0.185418067669491
15066.0,24575.0,0.21155931519173507
15076.0,24565.0,0.22174425696802225
15086.0,24550.0,0.21742054719211648
15096.0,24543.0,0.2008065402778354
15106.0,24508.0,0.17473779839784936
15116.0,24500.0,0.14248674396336786
15127.0,24467.0,0.10756537713498224
15136.0,24454.0,0.07352161575580166
15146.0,24434.0,0.04373989113342254
15156.0,24430.0,0.02125608152926292
15166.0,24421.0,0.008595668759863173
15177.0,24425.0,0.007642247843005009
15186.0,24446.0,0.019541471283355896
15196.0,24445.0,0.044643228141704294
15206.0,24479.0,0.08248248730949462
15216.0,24484.0,0.1317973054543133
15226.0,24504.0,0.19058130331436793
15236.0,24527.0,0.2561673650377848
15246.0,24538.0,0.3253391888326454
15256.0,24562.0,0.3944672134956812
15266.0,24571.0,0.4596652257762182
15276.0,24595.0,0.5169637335643129
15286.0,24615.0,0.5624957639879705
15296.0,24636.0,0.5926897504920943
15306.0,24657.0,0.6044626104075838
15317.0,24670.0,0.5954044312687117
15326.0,24686.0,0.5639448655022474
15336.0,24691.0,0.5094905514845086
15346.0,24710.0,0.43252253887195435
15356.0,24701.0,0.3346426212821098
15366.0,24656.0,0.21855803284128722
15376.0,24607.0,0.08799656507793917
15386.0,24531.0,-0.052450158765151376
15396.0,24461.0,-0.197549959125834
15406.0,24368.0,-0.34170747359997117
15416.0,24272.0,-0.47927741664533585
15426.0,24185.0,-0.6048909174633724
15436.0,24131.0,-0.71376888915826
15446.0,24110.0,-0.8019959918022955
15457.0,24106.0,-0.8667327275303645
15466.0,24116.0,-0.9063509740962916
15476.0,24134.0,-0.9204871639272775
15486.0,24167.0,-0.9100148671526767
15496.0,24211.0,-0.8769440996902473
15507.0,24246.0,-0.8242588491045084
15516.0,24279.0,-0.7557072972883051
15526.0,24323.0,-0.6755604994752963
15536.0,24363.0,-0.5883549354375883
15546.0,24401.0,-0.4986334659019778
15557.0,24435.0,-0.4106984082805944
15566.0,24473.0,-0.3283893166662137
15576.0,24486.0,-0.25489637019017397
15586.0,24507.0,-0.19261809219350626
15596.0,24512.0,-0.14306933303547964
15606.0,24515.0,-0.10684223732470398
15616.0,24516.0,-0.08361984203935624
15626.0,24499.0,-0.07223928591258816
15636.0,24493.0,-0.07079923915479723
15647.0,24476.0,-0.07680401543708618
15656.0,24466.0,-0.08733515453708082
15666.0,24443.0,-0.09924031298956139
15676.0,24443.0,-0.1093288981774915
15686.0,24430.0,-0.11456390624064297
15697.0,24440.0,-0.1122401586718717
15706.0,24440.0,-0.10014065862716055
15716.0,24444.0,-0.07666466759683781
15726.0,24468.0,-0.04092280985226302
15736.0,24478.0,0.007204012517234427
15746.0,24512.0,0.06704350106216425
15756.0,24530.0,0.13714844536586213
15766.0,24555.0,0.21534903928952184
15776.0,24586.0,0.2988382267384076
15787.0,24612.0,0.38428667098205993
15796.0,24642.0,0.46798332466397735
15806.0,24664.0,0.5459968010849409
15816.0,24687.0,0.6143521212255084
15826.0,24697.0,0.6692171393457684
15836.0,24728.0,0.7070929034926244
15846.0,24743.0,0.7250019199232305
15856.0,24758.0,0.7206672809715475
15866.0,24785.0,0.6926741239338868
15877.0,24800.0,0.6406034655082776
15886.0,24807.0,0.5651271792727316
15896.0,24788.0,0.46805220760001276
15906.0,24764.0,0.35230325545517943
15916.0,24699.0,0.22183683261938528
15926.0,24635.0,0.08148515404799607
15936.0,24573.0,-0.06326483390358179
15946.0,24495.0,-0.2065456097213031
15956.0,24418.0,-0.3424199651453506
15967.0,24345.0,-0.4652089755775308
15976.0,24270.0,-0.5698150441386288
15986.0,24202.0,-0.652016570514893
15996.0,24196.0,-0.7087108423069308
16006.0,24207.0,-0.7380844128963064
16016.0,24235.0,-0.7396968327663006
16026.0,24281.0,-0.7144732021628687
16036.0,24323.0,-0.6646103643629088
16046.0,24394.0,-0.5934084541372439
16057.0,24444.0,-0.5050440604476287
16066.0,24489.0,-0.4043040430985171
16076.0,24540.0,-0.2962998267114874
16086.0,24585.0,-0.18618067166719418
16097.0,24619.0,-0.07886204396141819
16106.0,24646.0,0.02121728561344719
16116.0,24684.0,0.11029854161568885
16126.0,24700.0,0.18545872297283822
16137.0,24708.0,0.24471353513128413
16146.0,24712.0,0.28706467872045677
16156.0,24699.0,0.3124917988404151
16166.0,24697.0,0.32189275945120804
16177.0,24673.0,0.3169787561018705
16186.0,24659.0,0.3001328277848706
16196.0,24631.0,0.27424175225168385
16206.0,24629.0,0.24251221917309274
16217.0,24612.0,0.2082822073537925
16226.0,24607.0,0.17483732336320432
16236.0,24600.0,0.14523998909680186
16246.0,24600.0,0.12217759057800348
16256.0,24589.0,0.10783424770972762
16266.0,24599.0,0.10378970765139205
16276.0,24607.0,0.11094794036017896
16286.0,24610.0,0.12949694745506332
16296.0,24627.0,0.15890000883079655
16306.0,24638.0,0.19791756303740632
16316.0,24653.0,0.24465824200774855
16326.0,24663.0,0.2966570112913104
16336.0,24684.0,0.35097797005723275
16347.0,24690.0,0.40433913216322637
16356.0,24708.0,0.4532562023740134
16366.0,24710.0,0.49420199312301
16376.0,24742.0,0.5237777207783562
16386.0,24745.0,0.5388915706093513
16396.0,24777.0,0.5369383104879417
16406.0,24791.0,0.5159716898702438
16416.0,24811.0,0.47485937408143053
16426.0,24827.0,0.4134085248770336
16437.0,24819.0,0.33244925513773205
16446.0,24804.0,0.23386367122940702
16456.0,24735.0,0.12055079584146655
16466.0,24685.0,-0.003677130695809505
16476.0,24612.0,-0.13426426734148228
16486.0,24550.0,-0.2661369059199931
16496.0,24490.0,-0.39397050015458435
16506.0,24428.0,-0.5124805537764479
16516.0,24375.0,-0.6167189773108009
16526.0,24297.0,-0.7023573395829988
16536.0,24263.0,-0.7659382677713131
16546.0,24249.0,-0.8050763627096614
16556.0,24257.0,-0.8185921759089825
16566.0,24293.0,-0.8065683471523314
16577.0,24321.0,-0.7703247849128728
16586.0,24371.0,-0.712317356962135
16596.0,24415.0,-0.6359703254958563
16606.0,24469.0,-0.5454564579262257
16616.0,24514.0,-0.44544087786032877
16626.0,24567.0,-0.3408056789869326
16636.0,24608.0,-0.23637225401302794
16646.0,24645.0,-0.1366373795229304
16656.0,24684.0,-0.04553747084267048
16666.0,24708.0,0.03374676440530991
16676.0,24731.0,0.09893548447249043
16686.0,24734.0,0.14873754761428984
16696.0,24738.0,0.18287701493657357
16706.0,24704.0,0.2020580280430971
16716.0,24696.0,0.2078719924755562
16726.0,24666.0,0.20265529425353332
16736.0,24654.0,0.18930906477734352
16746.0,24624.0,0.17109402868139467
16756.0,24622.0,0.15141360988164276
16766.0,24606.0,0.13359781103918186
16776.0,24594.0,0.12069902846773801
16786.0,24588.0,0.11530930615048618
16796.0,24587.0,0.11940713718770304
16806.0,24598.0,0.13424056848369517
16816.0,24601.0,0.16025147401774056
16826.0,24616.0,0.19704359343092603
16836.0,24633.0,0.24339490018231738
16846.0,24644.0,0.29731322093859097
16856.0,24677.0,0.35613254050122717
16866.0,24692.0,0.41664592830222574
16876.0,24725.0,0.4752694228795883
16886.0,24735.0,0.5282296562062252
16896.0,24761.0,0.5717669082874541
16906.0,24768.0,0.6023448141248057
16916.0,24792.0,0.6168578035401769
16926.0,24805.0,0.6128270956922226
16936.0,24823.0,0.5885754179852363
16946.0,24831.0,0.5433697236497175
16956.0,24840.0,0.47752057105553175
16966.0,24822.0,0.39242702359217063
16976.0,24765.0,0.29055757105733915
16986.0,24708.0,0.17536168455838072
16996.0,24634.0,0.05111337964311025
17006.0,24580.0,-0.07730437913366568
17016.0,24509.0,-0.2046600657917109
17027.0,24443.0,-0.3256615943346014
17036.0,24388.0,-0.4352535994142718
17046.0,24323.0,-0.5289051469724609
17056.0,24268.0,-0.6028690422413843
17066.0,24221.0,-0.6543944467888663
17076.0,24245.0,-0.6818758846048227
17086.0,24270.0,-0.6849255560248378
17096.0,24295.0,-0.6643634296895172
17106.0,24349.0,-0.6221287681917809
17117.0,24391.0,-0.5611240086319366
17126.0,24438.0,-0.48500627251691414
17136.0,24474.0,-0.3979440543354199
17146.0,24522.0,-0.30435707967485276
17156.0,24551.0,-0.20865623748150502
17166.0,24582.0,-0.11499868299405377
17176.0,24615.0,-0.027071012710753337
17186.0,24640.0,0.052089036069100564
17196.0,24651.0,0.12022423011656055
17206.0,24651.0,0.17593708065682978
17216.0,24655.0,0.21871404785663917
17226.0,24639.0,0.2488957747943179
17236.0,24619.0,0.26759788393046136
17246.0,24616.0,0.2765898150240397
17256.0,24602.0,0.2781413848961701
17266.0,24585.0,0.27484761558142146
17276.0,24563.0,0.26944222038927396
17286.0,24553.0,0.2646101023534183
17296.0,24560.0,0.2628093090632642
17307.0,24552.0,0.2661119188740349
17316.0,24553.0,0.2760710700211349
17326.0,24557.0,0.293619050529329
17336.0,24565.0,0.3189998740077167
17346.0,24562.0,0.351738609136228
17356.0,24581.0,0.39064854812802335
17366.0,24588.0,0.43387621280233735
17376.0,24595.0,0.478983030494338
17386.0,24613.0,0.5230612152650849
17397.0,24629.0,0.5628801907994254
17406.0,24635.0,0.5950585921594997
17416.0,24643.0,0.6162554458340564
17426.0,24675.0,0.6233729929811932
17436.0,24686.0,0.6137624289119767
17446.0,24705.0,0.5854218326763253
17456.0,24723.0,0.5371733518448049
17466.0,24736.0,0.4688053693840078
17476.0,24722.0,0.38116506142274453
17487.0,24678.0,0.27618786561355185
17496.0,24630.0,0.15685414982498103
17506.0,24549.0,0.02706995790208775
17516.0,24484.0,-0.10852352587837824
17526.0,24408.0,-0.2448001337252819
17537.0,24323.0,-0.37644165211048414
17546.0,24232.0,-0.49825328357581045
17556.0,24140.0,-0.6054787082660222
17566.0,24101.0,-0.6940896145307551
17576.0,24089.0,-0.7610246189691064
17586.0,24101.0,-0.8043571249788699
17596.0,24119.0,-0.8233806036296228
17606.0,24150.0,-0.8186097577278223
17616.0,24181.0,-0.7917039359580779
17626.0,24209.0,-0.7453241827162723
17636.0,24251.0,-0.6829379780780276
17646.0,24282.0,-0.6085867891806064
17656.0,24322.0,-0.5266317732941499
17666.0,24355.0,-0.44149274475955597
17677.0,24394.0,-0.35739485815311545
17686.0,24425.0,-0.2781364687629574
17696.0,24441.0,-0.20689036847079845
17706.0,24469.0,-0.14604876326325217
17716.0,24476.0,-0.09711983468233244
17726.0,24475.0,-0.06068089793258335
17736.0,24461.0,-0.03639010439596338
17746.0,24447.0,-0.023054957258086154
17756.0,24431.0,-0.018751936478170767
17766.0,24399.0,-0.020988219363610994
17776.0,24390.0,-0.02689419447208082
17786.0,24374.0,-0.03343408373458058
17796.0,24349.0,-0.0376216767266111
17806.0,24346.0,-0.03672877177898913
17816.0,24328.0,-0.028474725083003395
17826.0,24337.0,-0.011186489180827047
17836.0,24339.0,0.016079820761914655
17846.0,24356.0,0.05346237270229639
17856.0,24380.0,0.1002657056956135
17866.0,24391.0,0.15498204947643582
17876.0,24418.0,0.2153597770748346
17886.0,24437.0,0.2785149644595263
17896.0,24464.0,0.3410807003527381
17906.0,24494.0,0.3993874902467176
17916.0,24513.0,0.4496666047113993
17926.0,24535.0,0.4882668171437931
17936.0,24554.0,0.5118740779203333
17946.0,24575.0,0.517723286059102
17956.0,24594.0,0.5037909674948524
17967.0,24612.0,0.4689570826508586
17976.0,24618.0,0.41312365483565794
17986.0,24600.0,0.3372781004035636
17996.0,24574.0,0.24349092906081013
18006.0,24513.0,0.13484143652732763
18017.0,24436.0,0.015270949768458542
18026.0,24359.0,-0.11062956367864714
18036.0,24262.0,-0.23788326033121535
18046.0,24165.0,-0.36142201513388794
18056.0,24076.0,-0.4763869014377961
18067.0,24020.0,-0.5784077998588237
18076.0,24013.0,-0.6638381974970194
18086.0,23994.0,-0.7299296555362145
18096.0,24006.0,-0.7749409376369547
18106.0,24027.0,-0.7981841879050097
18117.0,24047.0,-0.8000133605705826
18126.0,24084.0,-0.7817603839398887
18136.0,24114.0,-0.7456242544725008
18146.0,24154.0,-0.6945185538582493
18156.0,24192.0,-0.631884702787707
18167.0,24225.0,-0.5614813558581028
18176.0,24256.0,-0.4871628661891988
18186.0,24281.0,-0.4126602112511546
18196.0,24321.0,-0.3413765235748005
18206.0,24340.0,-0.2762077400329133
18217.0,24365.0,-0.21939756707105887
18226.0,24382.0,-0.1724345834599363
18236.0,24375.0,-0.13599731086806602
18246.0,24375.0,-0.10995030663390801
18256.0,24369.0,-0.09339087695940125
18266.0,24349.0,-0.08474250419615716
18276.0,24340.0,-0.08188825744017902
18286.0,24317.0,-0.08233530737674583
18296.0,24308.0,-0.08340003167495044
18306.0,24282.0,-0.0824022192390047
18316.0,24278.0,-0.07685651275877577
18326.0,24283.0,-0.06464944076421392
18336.0,24276.0,-0.0441915853607554
18346.0,24292.0,-0.01453664262476813
18356.0,24295.0,0.024538454453617655
18366.0,24316.0,0.0724961163624584
18376.0,24330.0,0.12804523163649184
18386.0,24360.0,0.18919273491134414
18396.0,24387.0,0.2533373989224264
18406.0,24398.0,0.3174014849618335
18416.0,24432.0,0.37799414299793993
18426.0,24458.0,0.4315994163912744
18436.0,24475.0,0.4747807684243059
18446.0,24508.0,0.5043927734465127
18456.0,24521.0,0.5177894632667448
18466.0,24539.0,0.5130180898122464
18476.0,24566.0,0.4889866513941088
18486.0,24581.0,0.44559327555211914
18496.0,24590.0,0.383805271554154
18506.0,24557.0,0.30567600414218093
18516.0,24518.0,0.21429030582364514
18526.0,24466.0,0.11363470665298481
18536.0,24391.0,0.008396101805018376
18546.0,24315.0,-0.09630024069559892
18556.0,24219.0,-0.1951959284242276
18566.0,24140.0,-0.2832248760124516
18576.0,24071.0,-0.35583173635132287
18586.0,24045.0,-0.40925530267688964
18596.0,24065.0,-0.4407529182690103
18606.0,24077.0,-0.44875023903513844
18616.0,24115.0,-0.4329096678800701
18626.0,24158.0,-0.39411746367862655
18636.0,24207.0,-0.33439448957239376
18646.0,24262.0,-0.25674046986649485
18657.0,24304.0,-0.16492609847205028
18666.0,24354.0,-0.06324993709968157
18676.0,24396.0,0.043722626352394135
18686.0,24436.0,0.15142221365072053
18696.0,24473.0,0.25552562996848754
18707.0,24513.0,0.3521807989518306
18716.0,24546.0,0.4381957360182839
18726.0,24562.0,0.5111825327372154
18736.0,24571.0,0.5696493297029387
18746.0,24558.0,0.6130363072424242
18756.0,24567.0,0.6416957763537764
18766.0,24547.0,0.6568204234347892
18776.0,24539.0,0.6603265964813712
18786.0,24523.0,0.6547012589269122
18797.0,24511.0,0.6428224317134096
18806.0,24496.0,0.627763622972383
18816.0,24472.0,0.6125928646953714
18826.0,24466.0,0.6001769150154525
18836.0,24474.0,0.5930009255797681
18847.0,24452.0,0.5930127141620491
18856.0,24465.0,0.6014987611341076
18866.0,24462.0,0.6189972529313369
18876.0,24472.0,0.6452521813629197
18887.0,24477.0,0.6792110158403404
18896.0,24500.0,0.7190667492950336
18906.0,24511.0,0.7623433500841389
18916.0,24540.0,0.8060216482599716
18926.0,24562.0,0.8467004923235106
18937.0,24594.0,0.8807858235242
18946.0,24608.0,0.9046982251961452
18956.0,24617.0,0.9150879520440148
18966.0,24639.0,0.9090460028482736
18976.0,24641.0,0.8843002016913405
18986.0,24656.0,0.8393855735951496
18996.0,24668.0,0.7737782146470296
19006.0,24659.0,0.6879817074470781
19016.0,24631.0,0.5835555573675986
19027.0,24582.0,0.46307730184926016
19036.0,24518.0,0.3300346793135047
19046.0,24431.0,0.1886508599973717
19056.0,24361.0,0.043652809898326594
19066.0,24285.0,-0.10000102688495055
19077.0,24172.0,-0.23741344041455376
19086.0,24085.0,-0.36403876215807973
19096.0,24035.0,-0.4759462682064511
19106.0,24017.0,-0.5700335774956894
19116.0,24022.0,-0.6441744103926015
19127.0,24040.0,-0.6972959370564411
19136.0,24060.0,-0.7293890379489276
19146.0,24087.0,-0.7414579735868927
19156.0,24111.0,-0.7354165161031974
19166.0,24148.0,-0.7139380928384774
19177.0,24177.0,-0.6802692130131597
19186.0,24212.0,-0.6380181450137544
19196.0,24221.0,-0.5909328075300867
19206.0,24249.0,-0.5426817137617823
19216.0,24274.0,-0.49664989224794076
19227.0,24300.0,-0.4557596146781166
19236.0,24318.0,-0.4223245834601548
19246.0,24318.0,-0.39794538458747614
19256.0,24310.0,-0.3834521526063077
19266.0,24310.0,-0.3788970805684837
19277.0,24298.0,-0.38359560149362454
19286.0,24277.0,-0.3962120408117234
19296.0,24254.0,-0.41488333626584173
19306.0,24228.0,-0.4373722539083058
19316.0,24214.0,-0.4612394270195793
19327.0,24190.0,-0.4840223423906218
19336.0,24186.0,-0.5034094796435485
19346.0,24175.0,-0.5173988687035145
19356.0,24182.0,-0.5244320386757914
19366.0,24185.0,-0.5234965477522087
19376.0,24186.0,-0.5141927243663295
19386.0,24213.0,-0.49676247492381587
19396.0,24213.0,-0.4720799206270532
19406.0,24231.0,-0.4416053814624915
19416.0,24252.0,-0.4073056427207879
19426.0,24269.0,-0.3715444605711753
19437.0,24290.0,-0.3369483826953582
19446.0,24307.0,-0.3062542165278591
19456.0,24317.0,-0.2821453491720584
19466.0,24333.0,-0.2670844188047469
19476.0,24353.0,-0.26314981969749346
19487.0,24366.0,-0.27188371052903665
19496.0,24385.0,-0.29415986715261117
19506.0,24394.0,-0.33008045645118017
19516.0,24402.0,-0.3789110227880539
19526.0,24404.0,-0.43906243427855546
19537.0,24369.0,-0.508127032831466
19546.0,24326.0,-0.5829731695942876
19556.0,24274.0,-0.6598971014802709
19566.0,24216.0,-0.7348245943835308
19576.0,24152.0,-0.8035484043143515
19586.0,24082.0,-0.8619832163334575
19597.0,24044.0,-0.9064168408592752
19606.0,24026.0,-0.9337365950629474
19616.0,24024.0,-0.9416140374693137
19626.0,24053.0,-0.9286378343496217
19636.0,24081.0,-0.8943896745311297
19647.0,24130.0,-0.8394604467989375
19656.0,24184.0,-0.7654056178405712
19666.0,24241.0,-0.6746424363666902
19676.0,24289.0,-0.5702969676668879
19687.0,24347.0,-0.4560134196301232
19696.0,24408.0,-0.3357401040971206
19706.0,24454.0,-0.21350651177870753
19716.0,24492.0,-0.09320546314090042
19726.0,24545.0,0.02160706452451369
19737.0,24567.0,0.12788410408738313
19746.0,24606.0,0.22322394966626416
19756.0,24638.0,0.30596477881821266
19766.0,24641.0,0.37523399165607324
19776.0,24662.0,0.4309507038737602
19787.0,24649.0,0.47378239707039627
19796.0,24651.0,0.5050597785041859
19806.0,24641.0,0.5266567881465943
19816.0,24642.0,0.5408448369605016
19826.0,24639.0,0.5501313730789211
19837.0,24637.0,0.5570927119164525
19846.0,24637.0,0.5642102439317164
19856.0,24636.0,0.573718200653269
19866.0,24648.0,0.5874702294428139
19877.0,24652.0,0.6068308673971433
19886.0,24669.0,0.632596478091974
19896.0,24685.0,0.6649485050978413
19906.0,24703.0,0.7034402029249041
19916.0,24725.0,0.7470163875576283
19927.0,24746.0,0.7940643074101693
19936.0,24773.0,0.842492522968008
19946.0,24777.0,0.8898336863770477
19956.0,24803.0,0.9333665669864925
19967.0,24821.0,0.9702526701903562
19976.0,24830.0,0.997682739892726
19986.0,24854.0,1.0130278734934774
19996.0,24856.0,1.0139892874250724
20006.0,24867.0,0.9987402963403023
20017.0,24869.0,0.966053832920551
20026.0,24881.0,0.9154087948835143
20036.0,24893.0,0.8470682856615942
20046.0,24892.0,0.7621220907582608
20057.0,24874.0,0.6624851033525969
20066.0,24816.0,0.5508443768651562
20076.0,24758.0,0.4305513534376716
20086.0,24686.0,0.30546234094093
20096.0,24627.0,0.17973736256364237
20107.0,24561.0,0.057612685605744285
20116.0,24507.0,-0.05683519871737401
20126.0,24462.0,-0.15991603673936236
20136.0,24442.0,-0.24852580366829238
20147.0,24416.0,-0.3203060309530613
20156.0,24415.0,-0.37375228497459156
20166.0,24429.0,-0.40826609732423963
20176.0,24444.0,-0.42414915527652974
20186.0,24475.0,-0.42254309973728266
20197.0,24501.0,-0.4053223749028699
20206.0,24526.0,-0.3749505059094642
20216.0,24558.0,-0.3343116650053769
20226.0,24582.0,-0.28652958691494096
20237.0,24608.0,-0.23478527725137985
20247.0,24625.0,-0.1821438722807282
20256.0,24652.0,-0.13139948842777485
20266.0,24656.0,-0.08494510134854848
20276.0,24674.0,-0.04467262615212049
20287.0,24678.0,-0.011906404679984498
20296.0,24683.0,0.012628665037731808
20306.0,24675.0,0.02880490648844875
20316.0,24677.0,0.03705782021770376
20326.0,24668.0,0.03832416952550919
20337.0,24660.0,0.03395743049511349
20346.0,24650.0,0.02562662646939031
20356.0,24636.0,0.015205146615863342
20366.0,24652.0,0.004656492802571357
20377.0,24646.0,-0.004076564434141881
20386.0,24646.0,-0.009174448489740599
20396.0,24649.0,-0.00903150977138608
20406.0,24663.0,-0.002332495312154672
20416.0,24677.0,0.011887218996465413
20427.0,24691.0,0.03419844574231351
20436.0,24710.0,0.06475145674451745
20446.0,24709.0,0.10326429418126432
20456.0,24733.0,0.14902481383937552
20467.0,24752.0,0.2009058254996171
20476.0,24761.0,0.25739308581633524
20486.0,24773.0,0.3166257619342571
20496.0,24790.0,0.37644908235402225
20506.0,24811.0,0.434479355291833
20517.0,24818.0,0.48818148884475904
20526.0,24825.0,0.5349585055711121
20536.0,24839.0,0.5722521563720844
20546.0,24870.0,0.5976535576320743
20557.0,24869.0,0.6090216927252594
20566.0,24894.0,0.6046055054273684
20576.0,24903.0,0.5831633895045115
20586.0,24921.0,0.5440726368078939
20597.0,24949.0,0.48742018195889436
20607.0,24948.0,0.41406448950728564
20616.0,24941.0,0.32565740996028725
20626.0,24886.0,0.22461578649717673
20636.0,24829.0,0.1140367894419711
20647.0,24743.0,-0.002441913687056918
20656.0,24699.0,-0.12082800377488237
20666.0,24632.0,-0.23699101820685328
20676.0,24579.0,-0.34689150763916105
20687.0,24538.0,-0.44680504460037823
20696.0,24500.0,-0.5335247165247735
20706.0,24482.0,-0.6045278740901511
20716.0,24479.0,-0.6580960220880355
20726.0,24487.0,-0.6933808210363831
20737.0,24498.0,-0.7104138912132286
20746.0,24533.0,-0.7100627952679538
20756.0,24551.0,-0.6939395595114264
20766.0,24582.0,-0.6642711244866285
20777.0,24605.0,-0.6237428999668297
20786.0,24643.0,-0.5753270226491635
20796.0,24652.0,-0.5221065164545734
20806.0,24680.0,-0.4671056793294672
20817.0,24693.0,-0.4131354408280981
20826.0,24725.0,-0.36266044299757033
20836.0,24725.0,-0.31769300651057275
20846.0,24750.0,-0.27971799036792616
20857.0,24745.0,-0.24965118588817597
20866.0,24741.0,-0.2278320598909007
20876.0,24727.0,-0.2140494133736614
20886.0,24733.0,-0.2075959635800646
20897.0,24710.0,-0.20734576249636705
20906.0,24720.0,-0.21184748088206942
20916.0,24702.0,-0.21942663963816628
20926.0,24712.0,-0.22829035077599782
20937.0,24698.0,-0.2366289179788455
20946.0,24708.0,-0.24270957426454345
20956.0,24706.0,-0.24495853623553634
20966.0,24725.0,-0.2420285682349339
20977.0,24731.0,-0.2328505873823145
20986.0,24757.0,-0.21666940951199057
20996.0,24755.0,-0.19306512046844437
21006.0,24783.0,-0.16196229081312427
21017.0,24793.0,-0.12362923593175039
21026.0,24813.0,-0.0786692285244346
21036.0,24815.0,-0.02800531080406302
21046.0,24839.0,0.02714022644536799
21057.0,24844.0,0.08527161767888272
21066.0,24865.0,0.14465136043202498
21076.0,24876.0,0.20333889548422185
21086.0,24891.0,0.25923715109759
21097.0,24899.0,0.31014769438915823
21106.0,24917.0,0.35383502100635705
21116.0,24924.0,0.3881001794506949
21126.0,24929.0,0.4108632996724067
21137.0,24925.0,0.42025391537174867
21146.0,24951.0,0.414707525584998
21156.0,24956.0,0.3930660334096042
21166.0,24967.0,0.3546777486670558
21177.0,24979.0,0.2994901421985887
21186.0,24992.0,0.2281266549234828
21196.0,24986.0,0.1419377302227206
21206.0,24987.0,0.04301577606829545
21217.0,24948.0,-0.0658354054330209
21226.0,24885.0,-0.18118335205389505
21236.0,24807.0,-0.29910310741346097
21246.0,24750.0,-0.4153605665832696
21257.0,24687.0,-0.5256294897885034
21266.0,24646.0,-0.6257245199885041
21276.0,24598.0,-0.7118319839067392
21286.0,24572.0,-0.7807217619393568
21297.0,24537.0,-0.8299256774079178
21306.0,24546.0,-0.8578702525131205
21316.0,24537.0,-0.8639545980044772
21326.0,24577.0,-0.8485680490307295
21337.0,24604.0,-0.8130468333887283
21346.0,24653.0,-0.759574043011476
21356.0,24696.0,-0.6910317724757065
21367.0,24750.0,-0.6108177344030873
21377.0,24780.0,-0.5226405880404884
21386.0,24828.0,-0.43030857503174
21396.0,24843.0,-0.3375248762019676
21407.0,24882.0,-0.2477007809259755
21417.0,24912.0,-0.16379508713910657
21426.0,24941.0,-0.0881860048286988
21436.0,24955.0,-0.02258052643201107
21447.0,24967.0,0.03203504560288232
21456.0,24974.0,0.0754018192356557
21466.0,24960.0,0.10795339661946934
21476.0,24950.0,0.13074326986675902
21487.0,24950.0,0.1453412669261047
21496.0,24942.0,0.15370788270839733
21506.0,24934.0,0.15805591661389284
21516.0,24931.0,0.16070829612377271
21527.0,24931.0,0.16396024320801783
21536.0,24941.0,0.16995304660808683
21546.0,24946.0,0.18056519148438854
21556.0,24960.0,0.19732463521716878
21567.0,24970.0,0.22134419052262355
21576.0,24997.0,0.25328055262713517
21586.0,25013.0,0.2933162540338009
21596.0,25044.0,0.3411625288094121
21607.0,25052.0,0.3960799704611078
21616.0,25083.0,0.4569134526505607
21626.0,25093.0,0.5221381391168914
21637.0,25119.0,0.5899140981404425
21647.0,25133.0,0.6581476345196281
21656.0,25155.0,0.7245578762077921
21666.0,25155.0,0.7867474930057373
21677.0,25172.0,0.842276912265163
21687.0,25181.0,0.8887420895836241
21696.0,25188.0,0.9238562584909751
21706.0,25193.0,0.9455357159946166
21717.0,25200.0,0.9519889535071024
21726.0,25203.0,0.9418076293655883
21736.0,25219.0,0.9140567737839282
21746.0,25224.0,0.8683599842707415
21757.0,25232.0,0.8049733595804148
21766.0,25231.0,0.7248401160405569
21776.0,25239.0,0.6296168281781443
21786.0,25215.0,0.5216621313294628
21797.0,25176.0,0.4039797051047307
21806.0,25096.0,0.28011043300669886
21816.0,25012.0,0.15397467382407104
21827.0,24937.0,0.029673685803331084
21837.0,24856.0,-0.08873327268616756
21846.0,24825.0,-0.1974554000854712
21856.0,24780.0,-0.2931795469825024
21867.0,24773.0,-0.37324481844343316
21877.0,24752.0,-0.435770643868424
21886.0,24765.0,-0.4797318651736377
21896.0,24761.0,-0.5049790901288745
21907.0,24782.0,-0.5122064119493962
21916.0,24804.0,-0.5028716752815567
21926.0,24833.0,-0.4790769685620108
21936.0,24854.0,-0.44341915326763864
21947.0,24894.0,-0.3988217268035207
21956.0,24911.0,-0.3483598408764647
21966.0,24927.0,-0.29508993309617626
21976.0,24935.0,-0.2418940118218773
21987.0,24942.0,-0.1913459950534224
21996.0,24968.0,-0.145604473829558
22006.0,24963.0,-0.10633413966758891
22017.0,24980.0,-0.07465713154511645
22027.0,24977.0,-0.05113482884192111
22036.0,24971.0,-0.035779499030303204
22046.0,24963.0,-0.028093759913182692
22057.0,24949.0,-0.027134143445799855
22067.0,24937.0,-0.03159339261840919
22076.0,24941.0,-0.039895025203568
22086.0,24928.0,-0.05029361555418935
22097.0,24924.0,-0.06097511359115816
22106.0,24912.0,-0.07015253594845018
22116.0,24919.0,-0.076152878996787
22126.0,24921.0,-0.07749156940490919
22137.0,24930.0,-0.07293190331411006
22146.0,24941.0,-0.061528572857575826
22156.0,24954.0,-0.04265588386806069
22166.0,24961.0,-0.016022298701859363
22177.0,24981.0,0.01832655722594721
22186.0,24992.0,0.0600142331189162
22196.0,25009.0,0.10834706761335237
22206.0,25017.0,0.16233322166387892
22217.0,25031.0,0.22070579531113627
22226.0,25047.0,0.28194953233182496
22236.0,25049.0,0.3443313857531651
22247.0,25063.0,0.4059357711393533
22257.0,25070.0,0.4647058650685749
22266.0,25087.0,0.5184926562308753
22276.0,25089.0,0.5651131956143974
22287.0,25101.0,0.602418734368869
22297.0,25104.0,0.6283726694404974
22306.0,25122.0,0.641137456742963
22316.0,25123.0,0.6391684933713803
22327.0,25135.0,0.6213113486918715
22337.0,25141.0,0.5868970763468035
22346.0,25156.0,0.5358289048369027
22356.0,25156.0,0.46865221111395494
22367.0,25158.0,0.38659847369230715
22376.0,25147.0,0.29159353314512004
22386.0,25108.0,0.1862215094145987
22396.0,25030.0,0.07363867383022288
22407.0,24959.0,-0.04256282007955607
22416.0,24884.0,-0.15853371112023212
22426.0,24826.0,-0.27037416355762767
22436.0,24767.0,-0.3743495167704907
22447.0,24740.0,-0.46709654453485316
22456.0,24708.0,-0.5458038335501252
22466.0,24705.0,-0.6083537193166173
22476.0,24687.0,-0.6534177462139681
22487.0,24697.0,-0.6805019199114976
22496.0,24707.0,-0.6899415683024552
22506.0,24725.0,-0.6828486399311482
22516.0,24744.0,-0.6610170502619067
22527.0,24780.0,-0.626794017276205
22536.0,24803.0,-0.582927027386531
22546.0,24830.0,-0.5323972407883104
22556.0,24841.0,-0.4782504566525965
22567.0,24862.0,-0.4234357201284735
22576.0,24873.0,-0.37065958654064696
22586.0,24900.0,-0.3222619595382418
22596.0,24903.0,-0.28011799838730495
22607.0,24909.0,-0.2455696396841029
22616.0,24912.0,-0.21938899214718047
22626.0,24909.0,-0.20177397079976642
22636.0,24900.0,-0.19237460839082762
22647.0,24885.0,-0.19034683285387907
22656.0,24872.0,-0.194428887506982
22666.0,24866.0,-0.2030340976258121
22676.0,24865.0,-0.21435301404403417
22687.0,24852.0,-0.22645848679901973
22696.0,24841.0,-0.2374083494252895
22706.0,24854.0,-0.24534117221123672
22716.0,24844.0,-0.24856107933636434
22727.0,24860.0,-0.24560869855602038
22737.0,24861.0,-0.23531678016106064
22746.0,24876.0,-0.21685021891397302
22756.0,24889.0,-0.18973106003706003
22767.0,24906.0,-0.15384975730608702
22777.0,24919.0,-0.10946448833877309
22786.0,24937.0,-0.057190574891483596
22796.0,24952.0,0.0020181219056995873
22807.0,24975.0,0.06689439588514397
22817.0,24982.0,0.13588846229227525
22826.0,25004.0,0.207203715702277
22836.0,25015.0,0.2788375072786185
22847.0,25035.0,0.34862754079456937
22857.0,25046.0,0.41430468101402956
22866.0,25062.0,0.4735528164831777
22876.0,25056.0,0.5240762191043061
22887.0,25076.0,0.563674841290597
22897.0,25089.0,0.5903279524968932
22906.0,25099.0,0.602285629333016
22916.0,25108.0,0.5981656883701502
22927.0,25125.0,0.5770516198058661
22937.0,25130.0,0.53858549060683
22946.0,25142.0,0.4830483525047656
22956.0,25145.0,0.4114194444242423
22967.0,25153.0,0.3254047724395878
22977.0,25134.0,0.22742561985951992
22986.0,25088.0,0.12055867201654014
22996.0,25005.0,0.008422977311891781
23007.0,24931.0,-0.10498428278274798
23017.0,24862.0,-0.2154926932113815
23026.0,24805.0,-0.3189866741825951
23036.0,24767.0,-0.411636327756559
23047.0,24743.0,-0.4901117786777297
23057.0,24714.0,-0.5517652637661618
23066.0,24710.0,-0.5947695272416906
23076.0,24706.0,-0.6182050001550701
23087.0,24721.0,-0.6220916994755419
23097.0,24743.0,-0.6073652907995442
23106.0,24774.0,-0.5758004262392077
23116.0,24807.0,-0.529887969420006
23127.0,24854.0,-0.47267567147338024
23137.0,24880.0,-0.4075840124888746
23146.0,24909.0,-0.33821000523884887
23156.0,24938.0,-0.2681313723454775
23167.0,24958.0,-0.2007218299268733
23177.0,24977.0,-0.13898615033469697
23186.0,25009.0,-0.0854218413576005
23196.0,25015.0,-0.04191282326889076
23207.0,25024.0,-0.0096593521054685
23216.0,25029.0,0.010852974356394063
23226.0,25024.0,0.019844363927623072
23236.0,24998.0,0.01819368276983851
23247.0,24987.0,0.007357011026389508
23256.0,24970.0,-0.01074146520030246
23266.0,24953.0,-0.03383762285809482
23276.0,24936.0,-0.05946545671638357
23287.0,24931.0,-0.08509620199302033
23296.0,24922.0,-0.10827049892702938
23306.0,24923.0,-0.12671691374721303
23317.0,24926.0,-0.13845192205891382
23327.0,24936.0,-0.14185833515110102
23336.0,24950.0,-0.13574098055077133
23346.0,24957.0,-0.11936015874539027
23357.0,24977.0,-0.09244467299169327
23367.0,24989.0,-0.055186845560233254
23376.0,25023.0,-0.008222162010941083
23386.0,25030.0,0.04740352490832246
23397.0,25061.0,0.11027601316129966
23407.0,25066.0,0.17866099319129533
23416.0,25090.0,0.25055640554476666
23426.0,25101.0,0.3237479832466271
23437.0,25131.0,0.39586798597610723
23447.0,25141.0,0.4644574279029779
23456.0,25148.0,0.5270318807178883
23466.0,25161.0,0.5811509425404534
23477.0,25171.0,0.62449196918321
23486.0,25181.0,0.6549288722469588
23496.0,25193.0,0.6706160652385902
23507.0,25190.0,0.6700763387646186
23517.0,25207.0,0.652290160987091
23526.0,25219.0,0.6167826520661679
23536.0,25233.0,0.5637027762475117
23547.0,25243.0,0.49388704183148613
23557.0,25244.0,0.40889804662796364
23566.0,25247.0,0.3110274452752336
23576.0,25213.0,0.20325360174556587
23587.0,25150.0,0.08914668104919236
23596.0,25058.0,-0.02728080090802818
23606.0,24979.0,-0.14177168823562156
23616.0,24908.0,-0.2500548457430804
23627.0,24866.0,-0.3480873240358677
23636.0,24837.0,-0.43228549499823415
23646.0,24812.0,-0.49972590515495224
23657.0,24810.0,-0.5483018905141046
23667.0,24808.0,-0.5768272486620393
23676.0,24824.0,-0.5850828202866172
23686.0,24829.0,-0.5738058020040566
23697.0,24873.0,-0.5446249277784367
23707.0,24893.0,-0.499947409440245
23716.0,24938.0,-0.44280608912917047
23726.0,24970.0,-0.3766774669808678
23737.0,25008.0,-0.3052825966611766
23746.0,25037.0,-0.23238317689318705
23756.0,25050.0,-0.16158454678910994
23767.0,25078.0,-0.09615561248108004
23777.0,25093.0,-0.0388733496367435
23786.0,25127.0,0.008102528411705803
23796.0,25133.0,0.043320153125576466
23807.0,25142.0,0.06608721207650912
23817.0,25136.0,0.07648077580484318
23826.0,25125.0,0.0753145081226979
23836.0,25100.0,0.06406550674510333
23847.0,25086.0,0.044766056471548334
23856.0,25058.0,0.01986819361780765
23866.0,25044.0,-0.007909310013046403
23877.0,25023.0,-0.03574131210447419
23887.0,25016.0,-0.06085404895659423
23896.0,25009.0,-0.08067129841005394
23906.0,25012.0,-0.09294161946071455
23917.0,25023.0,-0.09584143875346078
23927.0,25028.0,-0.0880510893262634
23936.0,25047.0,-0.06880309777526372
23946.0,25066.0,-0.0379037185678074
23957.0,25093.0,0.00426999216425159
23966.0,25094.0,0.05679420639628313
23976.0,25127.0,0.11823968382195997
23987.0,25144.0,0.1867271957737447
23997.0,25157.0,0.25999444485042766
24006.0,25172.0,0.33547233194477616
24016.0,25194.0,0.41036906016970653
24027.0,25216.0,0.4817612875060839
24037.0,25221.0,0.5466915510096303
24046.0,25239.0,0.6022707167630934
24056.0,25248.0,0.6457840591045664
24067.0,25261.0,0.6747995509267806
24076.0,25266.0,0.68727641773576
24086.0,25279.0,0.6816710305249098
24097.0,25288.0,0.6570360813360417
24107.0,25279.0,0.6131077360693505
24116.0,25293.0,0.5503743760632984
24126.0,25300.0,0.47011987102785513
24137.0,25310.0,0.37443353565356335
24147.0,25284.0,0.2661778387949635
24156.0,25229.0,0.14890518921509452
24167.0,25143.0,0.026718935663139057
24177.0,25047.0,-0.09591848796964242
24186.0,24968.0,-0.21441772084719588
24196.0,24918.0,-0.32431454477054594
24207.0,24885.0,-0.4215184747717857
24217.0,24848.0,-0.5025368466726888
24226.0,24836.0,-0.564658679224297
24236.0,24824.0,-0.6060878301613875
24247.0,24844.0,-0.6260192561717692
24257.0,24841.0,-0.6246562360314467
24266.0,24875.0,-0.6031703780564298
24277.0,24900.0,-0.563609538669244
24287.0,24933.0,-0.5087613774034626
24296.0,24963.0,-0.4419824010209823
24306.0,25002.0,-0.36700370752955186
24317.0,25037.0,-0.2877250830046633
24327.0,25065.0,-0.2080090416735859
24336.0,25089.0,-0.13148589382101686
24346.0,25097.0,-0.061379547214091584
24357.0,25129.0,-0.0003614778038739352
24367.0,25145.0,0.0495620024725848
24376.0,25161.0,0.08712540254516804
24386.0,25163.0,0.11183943428385665
24397.0,25153.0,0.1239839877086019
24406.0,25131.0,0.12455890234289518
24416.0,25109.0,0.11519606457492317
24427.0,25091.0,0.09803979110652954
24437.0,25074.0,0.07560487668798545
24446.0,25065.0,0.05062241150771808
24456.0,25039.0,0.025882818551652368
24467.0,25036.0,0.004084472971978285
24477.0,25028.0,-0.01230466574074345
24486.0,25035.0,-0.021166103326743367
24496.0,25033.0,-0.020826033237912787
24507.0,25053.0,-0.010124351819222976
24516.0,25066.0,0.011542982557656229
24526.0,25074.0,0.04420702436209482
24537.0,25087.0,0.08733196775231239
24547.0,25111.0,0.13984170771937895
24556.0,25135.0,0.2001644017268691
24566.0,25136.0,0.2662923600595204
24577.0,25162.0,0.3358543545231836
24587.0,25173.0,0.4061980067534466
24596.0,25194.0,0.47448074715586114
24606.0,25197.0,0.5377680529512432
24617.0,25211.0,0.5931376052312944
24626.0,25224.0,0.6377881561782097
24636.0,25234.0,0.6691518448403652
24647.0,25244.0,0.685007933621926
24657.0,25255.0,0.6835947107433241
24666.0,25255.0,0.6637150905053024
24676.0,25260.0,0.6248304300660176
24687.0,25272.0,0.5671362918188796
24697.0,25272.0,0.49161306802270827
24706.0,25277.0,0.4000433537126978
24716.0,25244.0,0.2949873562889261
24727.0,25195.0,0.1797087960734849
24737.0,25109.0,0.058047804701204554
24746.0,25022.0,-0.06575567007368291
24756.0,24959.0,-0.18727617981416406
24767.0,24909.0,-0.302136648071128
24776.0,24864.0,-0.4062416921771341
24786.0,24837.0,-0.49599253126816817
24797.0,24806.0,-0.5684695938393471
24807.0,24804.0,-0.6215727785248116
24816.0,24795.0,-0.6541127869477433
24826.0,24799.0,-0.6658503115263096
24837.0,24812.0,-0.6574829843082816
24847.0,24835.0,-0.6305826308668893
24856.0,24867.0,-0.5874877849420869
24866.0,24888.0,-0.5311588550593433
24877.0,24931.0,-0.465005355995756
24887.0,24953.0,-0.39269572815271325
24896.0,24995.0,-0.3179605938205495
24906.0,25008.0,-0.24440010062225007
24917.0,25040.0,-0.17530519028786185
24927.0,25059.0,-0.11350119705984406
24936.0,25085.0,-0.061220607758143274
24946.0,25092.0,-0.020010571928928078
24957.0,25107.0,0.009320403596001229
24966.0,25098.0,0.02671375370329654
24976.0,25085.0,0.032829572495374895
24987.0,25060.0,0.028975047967420346
24997.0,25053.0,0.016998168561727204
25006.0,25026.0,-0.0008450334368646651
25016.0,25019.0,-0.022040144335826913
25027.0,24988.0,-0.0439712689661425
25037.0,24981.0,-0.06407574832481391
25046.0,24978.0,-0.0799876543587111
25056.0,24978.0,-0.08966208977773596
25067.0,24997.0,-0.09147452187808447
25077.0,25007.0,-0.08429231579628758
25086.0,25014.0,-0.06751844850569019
25096.0,25026.0,-0.041109251273344236
25107.0,25055.0,-0.0055686484491272075
25117.0,25056.0,0.03807850086987634
25126.0,25082.0,0.08833100831785133
25136.0,25087.0,0.14327086538424788
25147.0,25109.0,0.20063510167352372
25157.0,25108.0,0.25789805523822773
25166.0,25128.0,0.31236264242848577
25176.0,25128.0,0.3612597153316366
25187.0,25155.0,0.4018547983187529
25197.0,25151.0,0.43156104005526164
25206.0,25169.0,0.4480562328187828
25216.0,25171.0,0.44940074717775813
25227.0,25186.0,0.434152367310037
25237.0,25195.0,0.4014729478582167
25246.0,25209.0,0.3512203690658601
25256.0,25215.0,0.28401770568887696
25267.0,25228.0,0.20129027631028154
25277.0,25209.0,0.1052607278038879
25286.0,25162.0,-0.0011067609549760401
25296.0,25077.0,-0.11421841015689072
25307.0,25000.0,-0.2300169937234837
25317.0,24926.0,-0.34419126249323706
25326.0,24884.0,-0.4524104114278843
25336.0,24837.0,-0.5505626804655469
25347.0,24818.0,-0.6349789605102267
25357.0,24793.0,-0.7026263400586863
25366.0,24788.0,-0.7512608743893665
25376.0,24779.0,-0.7795326627180217
25387.0,24789.0,-0.7870394707659623
25397.0,24802.0,-0.774327823272924
25406.0,24832.0,-0.742843074514757
25416.0,24852.0,-0.6948326484404154
25427.0,24897.0,-0.6332091699781491
25437.0,24925.0,-0.56138220490257
25446.0,24967.0,-0.4830687164637363
25456.0,24991.0,-0.4020930805341294
25467.0,25034.0,-0.32218739522145595
25477.0,25050.0,-0.24680203163416067
25486.0,25083.0,-0.17893527030677808
25496.0,25107.0,-0.12098959643728371
25507.0,25140.0,-0.07466103498413211
25517.0,25147.0,-0.04086713847470829
25526.0,25149.0,-0.019718426670391347
25537.0,25138.0,-0.01053610614899561
25547.0,25129.0,-0.0119155396376892
25556.0,25098.0,-0.021831193729433915
25566.0,25092.0,-0.037775613949940376
25577.0,25062.0,-0.05692268225766087
25587.0,25058.0,-0.07630420904727311
25596.0,25047.0,-0.09298887062614614
25606.0,25043.0,-0.10425341902387295
25617.0,25041.0,-0.10773761946081603
25627.0,25049.0,-0.10157605337195581
25636.0,25060.0,-0.08450156487479296
25646.0,25065.0,-0.055916854939324245
25657.0,25087.0,-0.01593236597510033
25667.0,25096.0,0.03463017641696499
25676.0,25134.0,0.09426821033462318
25686.0,25150.0,0.16086121838377124
25697.0,25181.0,0.23176302258429474
25707.0,25210.0,0.3039191756214434
25716.0,25228.0,0.37400430607768564
25727.0,25242.0,0.4385739053432528
25737.0,25275.0,0.49422516711869446
25746.0,25290.0,0.5377617457574595
25756.0,25301.0,0.5663569492287591
25767.0,25328.0,0.577709121399611
25777.0,25337.0,0.5701824382099829
25786.0,25361.0,0.542925936129245
25796.0,25361.0,0.4959634432795882
25807.0,25395.0,0.4302477230065168
25817.0,25383.0,0.34767310367594156
25826.0,25378.0,0.25104130187836216
25837.0,25331.0,0.1439751558035867
25847.0,25248.0,0.030775659190925824
25856.0,25144.0,-0.08377879294922826
25866.0,25059.0,-0.1946837224494266
25877.0,24997.0,-0.296992308460355
25887.0,24941.0,-0.386105911865245
25896.0,24926.0,-0.45804510042513985
25906.0,24904.0,-0.5096792946671015
25917.0,24909.0,-0.5388994416653605
25927.0,24913.0,-0.5447243939848138
25936.0,24940.0,-0.5273370694972217
25946.0,24964.0,-0.4880509893335484
25957.0,25016.0,-0.4292118133731826
25967.0,25054.0,-0.35404219216130517
25976.0,25100.0,-0.2664414637913826
25987.0,25146.0,-0.17075390551764805
25997.0,25200.0,-0.07152011860772498
26006.0,25242.0,0.026773774067844022
26016.0,25278.0,0.11993465225828535
26027.0,25316.0,0.204275104471986
26037.0,25342.0,0.2767887213583639
26046.0,25373.0,0.33527909319167737
26056.0,25390.0,0.3784371213908536
26067.0,25398.0,0.4058654943509122
26076.0,25384.0,0.41805304064693355
26086.0,25362.0,0.41630388216270947
26097.0,25330.0,0.4026269348004497
26107.0,25299.0,0.3795914464833641
26116.0,25274.0,0.3501551228920575
26126.0,25229.0,0.3174735735670765
26137.0,25212.0,0.28470265396398126
26147.0,25204.0,0.2548071168309494
26156.0,25197.0,0.2303883939798425
26167.0,25192.0,0.21354142354042388
26177.0,25203.0,0.20574686953565005
26186.0,25210.0,0.20780211552810382
26196.0,25211.0,0.21979197621887966
26207.0,25236.0,0.24109805895791928
26217.0,25243.0,0.27044427753433165
26226.0,25267.0,0.30597481862547987
26237.0,25283.0,0.3453596350050883
26247.0,25309.0,0.3859215125929813
26256.0,25325.0,0.42477795643074456
26266.0,25343.0,0.4589905664513502
26277.0,25361.0,0.48571466599719837
26287.0,25377.0,0.5023430545030083
26296.0,25395.0,0.5066394632402464
26306.0,25398.0,0.49685864164594096
26317.0,25422.0,0.4718503788013175
26327.0,25424.0,0.431144307210194
26336.0,25450.0,0.37501150961266416
26347.0,25454.0,0.3044980869065854
26357.0,25449.0,0.22142511147270796
26366.0,25407.0,0.12834890594930573
26376.0,25319.0,0.02847554888553404
26387.0,25213.0,-0.07447518795514839
26397.0,25115.0,-0.17645639326730042
26406.0,25048.0,-0.27332140238208086
26416.0,24991.0,-0.36107198799770757
26427.0,24964.0,-0.4361025156425626
26437.0,24941.0,-0.4954175421785175
26446.0,24932.0,-0.5368062507919844
26457.0,24931.0,-0.5589632112732632
26467.0,24950.0,-0.5615500839801547
26476.0,24957.0,-0.5451972253072588
26486.0,24986.0,-0.5114479328638433
26497.0,25016.0,-0.46265110066775184
26507.0,25060.0,-0.4018104592094866
26516.0,25088.0,-0.33240082783235114
26526.0,25114.0,-0.25816359673658573
26537.0,25152.0,-0.18289407279339703
26547.0,25172.0,-0.11023241716686231
26556.0,25201.0,-0.043468673912205
26567.0,25222.0,0.014628716839891994
26577.0,25249.0,0.061952679123971274
26586.0,25265.0,0.09715838823565817
26596.0,25265.0,0.11971918850315053
26607.0,25244.0,0.1299332016477857
26617.0,25239.0,0.12887950651790928
26626.0,25213.0,0.1183269241111957
26636.0,25179.0,0.10060208248177918
26647.0,25161.0,0.07842607656949879
26657.0,25127.0,0.05473106235137729
26666.0,25120.0,0.03246927456398974
26676.0,25091.0,0.01442677997073718
26687.0,25101.0,0.0030530479837084126
26697.0,25100.0,0.00031547959583233195
26706.0,25101.0,0.007585407312924505
26717.0,25106.0,0.025559272924472916
26727.0,25118.0,0.05421664227757803
26736.0,25134.0,0.0928154488576026
26746.0,25151.0,0.13992356194705521
26757.0,25162.0,0.19348426897132937
26767.0,25187.0,0.25091207213843275
26776.0,25196.0,0.3092145182679442
26786.0,25214.0,0.3651353230450763
26797.0,25236.0,0.4153136442270368
26807.0,25241.0,0.45645391574547883
26816.0,25264.0,0.4855000656913402
26827.0,25272.0,0.49980732000471917
26837.0,25293.0,0.49730415503667946
26847.0,25293.0,0.4766361531818945
26856.0,25310.0,0.4372827800126193
26867.0,25317.0,0.3796377628005727
26877.0,25320.0,0.3050436674592796
26886.0,25293.0,0.2157715551797679
26896.0,25226.0,0.11493846892568933
26907.0,25138.0,0.006360572325540026
26917.0,25052.0,-0.10565182096993984
26926.0,24971.0,-0.21654174684297853
26936.0,24928.0,-0.3217733948156251
26947.0,24885.0,-0.417096306287084
26957.0,24856.0,-0.49878497741257793
26966.0,24835.0,-0.5638380729079873
26976.0,24833.0,-0.6101265910665243
26987.0,24831.0,-0.6364847519005736
26997.0,24836.0,-0.64274146130508
27006.0,24851.0,-0.6296937841726685
27016.0,24888.0,-0.5990267100821167
27027.0,24916.0,-0.553186163134259
27037.0,24935.0,-0.495214989776271
27046.0,24972.0,-0.42856356867884016
27056.0,24996.0,-0.35688692692288365
27067.0,25030.0,-0.28383959338758113
27077.0,25049.0,-0.2128788003734204
27086.0,25080.0,-0.14708590651629716
27096.0,25091.0,-0.08901474861437146
27107.0,25119.0,-0.040574183984883126
27117.0,25114.0,-0.002950516234072595
27126.0,25125.0,0.023426312538772823
27136.0,25103.0,0.0388712006038783
27147.0,25091.0,0.044388393716667085
27157.0,25067.0,0.041576621025050095
27166.0,25052.0,0.03250243064985072
27177.0,25031.0,0.019551300460867935
27187.0,25021.0,0.005266853003100113
27197.0,25012.0,-0.007811780120022359
27206.0,25004.0,-0.017305433158042123
27217.0,24998.0,-0.021135663877414522
27227.0,25009.0,-0.017644722565755132
27237.0,25006.0,-0.005690156504169652
27246.0,25005.0,0.015288933988361111
27257.0,25028.0,0.04523568647962309
27267.0,25042.0,0.0834700660552248
27277.0,25047.0,0.12871369235831942
27286.0,25066.0,0.17914285894442977
27297.0,25082.0,0.23246698371009084
27307.0,25091.0,0.28602954869637776
27317.0,25104.0,0.3369282314994389
27326.0,25121.0,0.3821505555731791
27337.0,25127.0,0.41872109374102695
27347.0,25143.0,0.4438557177877481
27357.0,25161.0,0.4551175765536267
27366.0,25176.0,0.4505684031332209
27377.0,25187.0,0.4289073001708597
27387.0,25210.0,0.38958771952437615
27397.0,25214.0,0.3329023670888883
27406.0,25213.0,0.26002531697328435
27417.0,25181.0,0.17300127524947778
27427.0,25117.0,0.07467481052489378
27437.0,25033.0,-0.03144182870509355
27446.0,24956.0,-0.1413555074602788
27457.0,24890.0,-0.2508185139027853
27467.0,24858.0,-0.3555740268473275
27477.0,24802.0,-0.45159984883043713
27486.0,24780.0,-0.5353325550456374
27497.0,24748.0,-0.6038581550573053
27507.0,24742.0,-0.6550587608915466
27517.0,24726.0,-0.6877079050360919
27526.0,24745.0,-0.7015104363658203
27536.0,24753.0,-0.6970863043578142
27547.0,24791.0,-0.6759010977911558
27557.0,24810.0,-0.6401498215704869
27566.0,24831.0,-0.592603394111151
27576.0,24871.0,-0.5364289433816266
27587.0,24892.0,-0.47499525232930584
27597.0,24927.0,-0.41167456433885136
27606.0,24943.0,-0.3496517329097685
27616.0,24975.0,-0.29175092954032694
27627.0,24995.0,-0.24028881823904347
27637.0,25010.0,-0.19696175486637454
27647.0,25011.0,-0.16277313031792154
27656.0,25014.0,-0.1380048586616318
27667.0,24996.0,-0.12223405557010446
27677.0,24988.0,-0.11439266833340295
27687.0,24959.0,-0.11286469580597802
27696.0,24950.0,-0.11561295010630258
27707.0,24935.0,-0.12032543192833182
27717.0,24939.0,-0.12457080337289579
27727.0,24926.0,-0.1259533038433221
27736.0,24933.0,-0.12225913893607918
27746.0,24921.0,-0.1115879113142464
27757.0,24946.0,-0.09246372916395225
27767.0,24943.0,-0.0639216903828458
27776.0,24966.0,-0.02556690475279094
27786.0,24983.0,0.022395189454842108
27797.0,25000.0,0.07915711139421631
27807.0,25022.0,0.14333503249688626
27816.0,25049.0,0.2130198623303376
27826.0,25062.0,0.2858511168342407
27837.0,25080.0,0.35911054834163986
27847.0,25104.0,0.4298324898445675
27856.0,25118.0,0.4949280543325234
27866.0,25137.0,0.5513201396516696
27877.0,25149.0,0.5960856224365151
27887.0,25175.0,0.6266005289553919
27896.0,25170.0,0.6406832530711569
27906.0,25198.0,0.6367300275144558
27917.0,25210.0,0.6138360427645324
27927.0,25232.0,0.571894530895923
27937.0,25240.0,0.5116645541777477
27946.0,25238.0,0.43479701923344133
27957.0,25217.0,0.34380878815781285
27967.0,25162.0,0.2419973391212314
27977.0,25064.0,0.13329365419653713
27986.0,24975.0,0.02205907490415985
27997.0,24915.0,-0.08715867013797388
28007.0,24873.0,-0.18988805011006155
28017.0,24825.0,-0.281991457320045
28026.0,24797.0,-0.3598981362801271
28037.0,24780.0,-0.4207971035791885
28047.0,24776.0,-0.46277899292176905
28057.0,24766.0,-0.48491978813315373
28066.0,24786.0,-0.4873034268287122
28077.0,24808.0,-0.470983861868244
28087.0,24847.0,-0.4378906924563356
28097.0,24878.0,-0.3906862890230428
28106.0,24915.0,-0.33258573316893536
28117.0,24937.0,-0.2671528307957335
28127.0,24975.0,-0.1980856409621979
28137.0,24997.0,-0.12900396930542662
28146.0,25023.0,-0.06324993273559136
28157.0,25050.0,-0.003711360704463938
28167.0,25075.0,0.047323546331867854
28176.0,25088.0,0.08827310540061946
28186.0,25087.0,0.11832471499462059
28197.0,25084.0,0.13744940070482498
28207.0,25068.0,0.14636791517258288
28216.0,25044.0,0.14647164915622143
28226.0,25035.0,0.13970498713075177
28237.0,25012.0,0.1284183032270055
28247.0,24990.0,0.11520215362930546
28256.0,24983.0,0.10271360603938931
28267.0,24967.0,0.09350551435098269
28277.0,24980.0,0.0898687048318227
28287.0,24966.0,0.09369524667841328
28296.0,24981.0,0.10636874243949994
28307.0,24991.0,0.12868558352067383
28317.0,25007.0,0.16080937418611202
28327.0,25025.0,0.20225888071602793
28336.0,25045.0,0.25192808893838115
28347.0,25064.0,0.30813564973293095
28357.0,25084.0,0.3687001661014389
28366.0,25102.0,0.43103730699000437
28376.0,25119.0,0.4922745511166377
28387.0,25126.0,0.5493793997088341
28397.0,25147.0,0.5992971308321159
28406.0,25165.0,0.6390943486538017
28417.0,25174.0,0.6661041800228387
28427.0,25187.0,0.6780680051193023
28437.0,25194.0,0.6732677882056262
28446.0,25203.0,0.6506426827201849
28457.0,25208.0,0.6098832580640435
28467.0,25227.0,0.5514961934642691
28477.0,25213.0,0.4768316584747678
28486.0,25211.0,0.38806531981232256
28497.0,25150.0,0.28812806086834847
28507.0,25081.0,0.1805801826550743
28517.0,24991.0,0.06943342643576152
28526.0,24924.0,-0.04106760024190063
28537.0,24877.0,-0.14668611568115825
28547.0,24836.0,-0.24343484971439414
28556.0,24795.0,-0.3277994567608187
28566.0,24777.0,-0.3969283851482312
28577.0,24763.0,-0.4487778458687733
28587.0,24764.0,-0.48220416077816597
28596.0,24762.0,-0.4969996275808959
28606.0,24786.0,-0.4938718200709186
28617.0,24806.0,-0.47436958616212893
28627.0,24834.0,-0.440762100491028
28636.0,24876.0,-0.39588017783141727
28647.0,24892.0,-0.34293126883803043
28657.0,24932.0,-0.2853007776840059
28667.0,24945.0,-0.22635232575057943
28676.0,24973.0,-0.16923848667382704
28687.0,24991.0,-0.11673188506964954
28697.0,25006.0,-0.07108483093872031
28707.0,25015.0,-0.03392398094541059
28716.0,25026.0,-0.0061847385939064175
28727.0,25021.0,0.011911860162021337
28737.0,25013.0,0.020839121457693854
28747.0,24984.0,0.021703303034916206
28756.0,24979.0,0.016145603185553727
28767.0,24956.0,0.006215155850094668
28777.0,24937.0,-0.005777573267754499
28787.0,24925.0,-0.017417028786945885
28796.0,24922.0,-0.026338543873711477
28807.0,24915.0,-0.030374886606071485
28817.0,24920.0,-0.027685810168137346
28827.0,24923.0,-0.016864988323735872
28836.0,24948.0,0.0029794292650645346
28847.0,24942.0,0.03217252053387425
28857.0,24973.0,0.07044867896432841
28867.0,24976.0,0.11695509180299696
28876.0,24994.0,0.1702810845848754
28887.0,25008.0,0.22851153466021298
28897.0,25035.0,0.28930240079175756
28907.0,25039.0,0.3499760698732495
28916.0,25065.0,0.40763360748856764
28927.0,25067.0,0.4592805894936377
28937.0,25093.0,0.5019630730898353
28947.0,25110.0,0.5329099037837942
28956.0,25115.0,0.5496765973820927
28967.0,25120.0,0.5502849037601841
28977.0,25147.0,0.5333515741782219
28987.0,25149.0,0.4981994866151552
28996.0,25177.0,0.44494319206323796
29007.0,25165.0,0.37453945479528605
29017.0,25161.0,0.2887928183818185
29027.0,25111.0,0.19030766723245163
29036.0,25035.0,0.08238225173791437
29047.0,24946.0,-0.031153101292260094
29057.0,24891.0,-0.14614293127775752
29067.0,24821.0,-0.2583409563334875
29076.0,24787.0,-0.36365106353933485
29087.0,24746.0,-0.4583555801798332
29097.0,24717.0,-0.5393148611007227
29107.0,24692.0,-0.6041260478178697
29116.0,24698.0,-0.6512323236210122
29127.0,24698.0,-0.6799774270958601
29137.0,24708.0,-0.6906041742440748
29147.0,24735.0,-0.6841998058983735
29156.0,24757.0,-0.6625943125086105
29166.0,24795.0,-0.6282205535879842
29177.0,24811.0,-0.5839471338683444
29187.0,24844.0,-0.5328961336956948
29196.0,24861.0,-0.4782575684803152
29206.0,24886.0,-0.4231112574218737
29217.0,24903.0,-0.37026525086516604
29227.0,24919.0,-0.3221183882844056
29237.0,24934.0,-0.280552951877977
29246.0,24940.0,-0.24686174726567836
29257.0,24937.0,-0.2217122178087096
29267.0,24934.0,-0.20514817222245743
29277.0,24922.0,-0.19662732858696372
29286.0,24915.0,-0.19509054642741
29297.0,24894.0,-0.19905677383385392
29307.0,24888.0,-0.20673643722525484
29317.0,24879.0,-0.21615522921867422
29326.0,24886.0,-0.22528030833113852
29337.0,24866.0,-0.23214198487925847
29347.0,24871.0,-0.2349453500375357
29357.0,24878.0,-0.23216718423028446
29366.0,24882.0,-0.22263421945594242
29376.0,24899.0,-0.20558020414583228
29387.0,24908.0,-0.1806809378262241
29397.0,24930.0,-0.14806783586076763
29407.0,24938.0,-0.1083215586654873
29416.0,24960.0,-0.062447833547381974
29427.0,24964.0,-0.011837729772480843
29437.0,24987.0,0.041785617804933485
29447.0,24989.0,0.09643227440856833
29456.0,25014.0,0.14992154600227253
29467.0,25017.0,0.19996767321672676
29477.0,25030.0,0.24427389470589517
29487.0,25042.0,0.28063335658389615
29496.0,25054.0,0.30703504373013324
29506.0,25074.0,0.32177220727442873
29517.0,25079.0,0.32354950716526226
29527.0,25110.0,0.3115836087365969
29537.0,25121.0,0.285690514565147
29546.0,25148.0,0.2463514062729087
29557.0,25145.0,0.19474747534392592
29567.0,25155.0,0.13275395891625594
29577.0,25113.0,0.06288507014678583
29586.0,25055.0,-0.011814828925932877
29597.0,24969.0,-0.08793212337640621
29607.0,24908.0,-0.16188668371111317
29617.0,24860.0,-0.230158180545807
29626.0,24824.0,-0.2895135732788171
29637.0,24811.0,-0.3372142401417761
29647.0,24796.0,-0.3711854249331736
29657.0,24804.0,-0.3901359789346167
29666.0,24814.0,-0.393621528459411
29676.0,24847.0,-0.38204894495153396
29687.0,24874.0,-0.3566245250939756
29697.0,24913.0,-0.3192525363663039
29707.0,24939.0,-0.2723941682634035
29716.0,24982.0,-0.21889891502079775
29727.0,25001.0,-0.1618210584547725
29737.0,25042.0,-0.10423364495920082
29747.0,25042.0,-0.049051401110814435
29756.0,25068.0,0.0011276607414835854
29767.0,25077.0,0.044154577058894286
29777.0,25094.0,0.07843074138721465
29787.0,25089.0,0.1029749604646676
29796.0,25099.0,0.1174544110966505
29807.0,25097.0,0.12217923795877458
29817.0,25087.0,0.11806211914086535
29827.0,25069.0,0.10654554308336263
29836.0,25048.0,0.08950128628149574
29847.0,25036.0,0.06910874008648211
29857.0,25014.0,0.04772047012938411
29867.0,25008.0,0.027724018341791147
29876.0,25004.0,0.011408552732016236
29886.0,25002.0,0.0008437805875716907
29897.0,25000.0,-0.002223191585800306
29907.0,25019.0,0.003550852080133802
29917.0,25026.0,0.01904806152292066
29926.0,25049.0,0.044656954488390514
29937.0,25063.0,0.08026319864286893
29947.0,25089.0,0.12526123231502378
29957.0,25106.0,0.17858354381013863
29966.0,25130.0,0.2387441544800415
29977.0,25131.0,0.3038930156693002
29987.0,25173.0,0.37187875329353964
29997.0,25177.0,0.44031806179037447
30006.0,25188.0,0.5066704321959162
30017.0,25198.0,0.5683171891811968
30027.0,25216.0,0.6226446540919128
30037.0,25218.0,0.6671319233333065
30046.0,25232.0,0.699443452107016
30057.0,25243.0,0.7175257932320204
30067.0,25253.0,0.7197068171799318
30077.0,25262.0,0.7047943346399168
30086.0,25269.0,0.6721694432022652
30097.0,25282.0,0.6218685099568536
30107.0,25281.0,0.5546464872390171
30117.0,25295.0,0.4720132226848115
30126.0,25288.0,0.37623379693333
30137.0,25273.0,0.27028402072997076
30147.0,25205.0,0.15775380031195335
30157.0,25119.0,0.042695516860599095
30166.0,25034.0,-0.07057752377871969
30177.0,24959.0,-0.17772811117225445
30187.0,24906.0,-0.2746460820032579
30197.0,24883.0,-0.3576895164991031
30206.0,24860.0,-0.4238951731135354
30217.0,24845.0,-0.47114270254051116
30227.0,24848.0,-0.49826304491383594
30237.0,24861.0,-0.5050861229250354
30246.0,24883.0,-0.492426920454762
30257.0,24916.0,-0.4620130381329633
30267.0,24945.0,-0.4163606226363448
30277.0,24985.0,-0.3586085758931765
30286.0,25025.0,-0.29232292942270127
30297.0,25063.0,-0.22128439970088193
30307.0,25088.0,-0.1492725819763258
30317.0,25113.0,-0.0798596876037208
30326.0,25136.0,-0.01622495199004227
30337.0,25155.0,0.0390015709501539
30347.0,25168.0,0.08385930518045769
30357.0,25188.0,0.11713679403486013
30366.0,25187.0,0.13840751381131994
30377.0,25176.0,0.14802032745400506
30387.0,25153.0,0.14704535492105042
30397.0,25142.0,0.13717934004703924
30406.0,25119.0,0.12061796448734399
30417.0,25098.0,0.09990471302120893
30427.0,25080.0,0.07776674760565193
30437.0,25068.0,0.056948428454667376
30446.0,25056.0,0.04005270927815
30457.0,25072.0,0.02939936268063632
30467.0,25065.0,0.026906834303462593
30477.0,25086.0,0.03400182489451862
30486.0,25095.0,0.05155816597341065
30497.0,25120.0,0.07986461123990231
30507.0,25129.0,0.11861965974824913
30517.0,25150.0,0.16695050661384014
30526.0,25171.0,0.22345292849476656
30537.0,25191.0,0.28624904914705
30547.0,25208.0,0.35305999102466384
30557.0,25223.0,0.42129049586037837
30566.0,25233.0,0.4881230587040694
30577.0,25254.0,0.5506198741061409
30587.0,25269.0,0.6058313875100328
30597.0,25278.0,0.6509100428831357
30606.0,25289.0,0.6832271646509205
30617.0,25295.0,0.7004903997443305
30627.0,25312.0,0.7008587618599328
30637.0,25313.0,0.683051544649079
30646.0,25323.0,0.6464461232869931
30657.0,25330.0,0.5911584135296554
30667.0,25341.0,0.5180987599359437
30677.0,25344.0,0.4289952169000712
30686.0,25334.0,0.32637577332950607
30697.0,25298.0,0.2135015486156385
30707.0,25223.0,0.09424518679053344
30717.0,25126.0,-0.02708602474621933
30726.0,25042.0,-0.14597407287503317
30737.0,24975.0,-0.2579435450684835
30747.0,24928.0,-0.35882091339243966
30757.0,24900.0,-0.44497608786508797
30766.0,24880.0,-0.513526619160796
30777.0,24870.0,-0.5624907265518297
30787.0,24878.0,-0.5908809400392293
30797.0,24884.0,-0.598734936713184
30806.0,24909.0,-0.5870842839857832
30817.0,24941.0,-0.557865459405867
30827.0,24985.0,-0.5137808417409008
30837.0,25007.0,-0.45812043431298427
30846.0,25051.0,-0.3945573038460189
30857.0,25076.0,-0.32693036531057934
30867.0,25108.0,-0.2590274955861155
30877.0,25125.0,-0.19438073534083478
30886.0,25155.0,-0.13608371396400284
30897.0,25171.0,-0.08663956562863621
30907.0,25191.0,-0.047845949261965094
30917.0,25195.0,-0.020722374212751082
30926.0,25204.0,-0.0054834130254232324
30937.0,25174.0,-0.0015592046701076805
30947.0,25168.0,-0.0076617355886159436
30957.0,25145.0,-0.02189190170992692
30966.0,25126.0,-0.041879272394719065
30977.0,25099.0,-0.06494463822533092
30987.0,25084.0,-0.08827451633182962
30997.0,25072.0,-0.10909639677779948
31007.0,25068.0,-0.12484400560094781
31017.0,25068.0,-0.13330347818463545
31027.0,25079.0,-0.1327336571194825
31036.0,25084.0,-0.12195621320978658
31047.0,25101.0,-0.10041358263226993
31057.0,25116.0,-0.06819455940080475
31067.0,25136.0,-0.026028767183707554
31076.0,25162.0,0.02474762932811388
31087.0,25180.0,0.0822516111837075
31097.0,25198.0,0.14413429335642397
31107.0,25220.0,0.20767892013975192
31116.0,25233.0,0.2699118933940334
31127.0,25244.0,0.32772332290446443
31137.0,25260.0,0.3779940321475692
31147.0,25269.0,0.41772633767265854
31156.0,25278.0,0.44417595971908436
31167.0,25292.0,0.4549819999635946
31177.0,25298.0,0.44829118402364115
31187.0,25302.0,0.4228715899189374
31196.0,25317.0,0.378210046239894
31207.0,25309.0,0.3145864641491371
31217.0,25324.0,0.23311756990042865
31227.0,25309.0,0.1357619943257123
31236.0,25293.0,0.02527883784834644
31247.0,25223.0,-0.09486661377158728
31257.0,25141.0,-0.22065218938669584
31267.0,25046.0,-0.347698024704869
31277.0,24976.0,-0.4715018046526176
31287.0,24915.0,-0.5876895095369195
31297.0,24877.0,-0.6922590125204352
31306.0,24853.0,-0.7817962817716946
31317.0,24842.0,-0.8536489924357591
31327.0,24824.0,-0.9060481197202155
31337.0,24826.0,-0.9381731207491308
31346.0,24834.0,-0.9501599607407133
31357.0,24863.0,-0.9430540875564498
31367.0,24872.0,-0.9187134699110748
31377.0,24910.0,-0.8796698132570854
31386.0,24944.0,-0.8289582299781856
31397.0,24962.0,-0.7699269486760137
31407.0,24992.0,-0.7060392792658629
31417.0,25015.0,-0.6406795710047481
31426.0,25037.0,-0.5769734543648315
31437.0,25048.0,-0.5176310629281147
31447.0,25071.0,-0.46482032594748235
31457.0,25084.0,-0.4200756745322735
31466.0,25083.0,-0.384245927099583
31477.0,25073.0,-0.3574835242871962
31487.0,25068.0,-0.3392749039432794
31497.0,25047.0,-0.3285087672594724
31506.0,25035.0,-0.32357629663873777
31517.0,25004.0,-0.32249547580083276
31527.0,25009.0,-0.3230503411251027
31537.0,24983.0,-0.32293546151720376
31546.0,24991.0,-0.3198965699281199
31557.0,24982.0,-0.3118597480183577
31567.0,24995.0,-0.29704333661158966
31577.0,24986.0,-0.2740485954483471
31586.0,25003.0,-0.24192677639563492
31597.0,25014.0,-0.20022144772053851
31607.0,25038.0,-0.14898601743436607
31617.0,25039.0,-0.08877782814929475
31626.0,25060.0,-0.020631334775053835
31637.0,25074.0,0.0539869510968724
31647.0,25091.0,0.1332393918355624
31657.0,25106.0,0.2149916987605498
31667.0,25122.0,0.29689840873172973
31677.0,25129.0,0.3764967592437738
31687.0,25150.0,0.45130647584989425
31697.0,25157.0,0.5189330445661838
31707.0,25170.0,0.5771717939316489
31717.0,25173.0,0.6241096423434013
31727.0,25189.0,0.6582209774124277
31736.0,25189.0,0.6784537461070556
31747.0,25202.0,0.6843011907612508
31757.0,25211.0,0.6758538429311334
31767.0,25222.0,0.6538255063674739
31776.0,25210.0,0.61954615165868
31787.0,25188.0,0.5749146797482181
31797.0,25113.0,0.5223066613364001
31807.0,25041.0,0.4644372540206892
31816.0,24948.0,0.40418707561920325
31827.0,24893.0,0.3444066383582415
31837.0,24837.0,0.28771991212396697
31847.0,24808.0,0.23634786120264925
31856.0,24769.0,0.1919690826142813
31867.0,24754.0,0.1556292497965601
31877.0,24741.0,0.12770577671885608
31887.0,24744.0,0.1079292995557588
31896.0,24756.0,0.09545879672426419
31907.0,24771.0,0.0890023499427216
