timestamp_ms,ir_value,ir_filtered
9383.0,28752.0,0.08720508531715612
9394.0,28746.0,0.08632773629791568
9403.0,28745.0,0.0848113875877952
9413.0,28758.0,0.08262383482519427
9424.0,28755.0,0.07973750989713688
9433.0,28756.0,0.07613007542295076
9443.0,28761.0,0.07178500353351126
9454.0,28754.0,0.06669212819131949
9463.0,28765.0,0.06084816132611783
9473.0,28762.0,0.05425716325605094
9484.0,28772.0,0.046930956796034234
9493.0,28766.0,0.0388894726708184
9504.0,28765.0,0.030161012990876708
9514.0,28773.0,0.020782420765065524
9523.0,28770.0,0.010799145193624935
9534.0,28768.0,0.0002651927519402745
9544.0,28778.0,-0.010757046284010311
9553.0,28784.0,-0.022197106129804856
9564.0,28779.0,-0.033976899759138944
9574.0,28779.0,-0.04601133146702929
9583.0,28780.0,-0.05820907823059143
9594.0,28775.0,-0.07047354612029182
9604.0,28765.0,-0.08270400431040902
9613.0,28744.0,-0.09479689532873269
9624.0,28692.0,-0.1066473125045547
9633.0,28628.0,-0.1181506209993453
9644.0,28593.0,-0.1292041771749473
9654.0,28550.0,-0.13970907977754973
9663.0,28522.0,-0.14957187673454242
9674.0,28506.0,-0.15870615573039776
9684.0,28489.0,-0.1670339584538481
9693.0,28493.0,-0.17448697222914109
9704.0,28480.0,-0.1810074669498024
9714.0,28494.0,-0.1865489582346497
9723.0,28495.0,-0.1910765885014346
9734.0,28514.0,-0.19456722698918344
9744.0,28553.0,-0.1970092994449919
9753.0,28560.0,-0.19840236964886204
9764.0,28580.0,-0.19875650640468845
9774.0,28611.0,-0.19809147587446368
9783.0,28627.0,-0.19643579955549992
9794.0,28642.0,-0.1938257180656825
9804.0,28657.0,-0.19030410092285688
9814.0,28679.0,-0.18591933958032467
9824.0,28686.0,-0.18072425676263007
9834.0,28693.0,-0.17477506213996483
9844.0,28717.0,-0.1681303809293313
9854.0,28702.0,-0.16085037733029328
9863.0,28701.0,-0.15299598953614418
9874.0,28706.0,-0.1446282856456853
9884.0,28704.0,-0.13580794085446496
9893.0,28701.0,-0.12659483092413065
9904.0,28697.0,-0.11704773545009695
9914.0,28684.0,-0.10722414222546739
9923.0,28680.0,-0.09718013950572262
9934.0,28666.0,-0.08697037801238368
9944.0,28670.0,-0.07664808090182675
9953.0,28669.0,-0.0662650791209
9964.0,28665.0,-0.05587185206103668
9974.0,28684.0,-0.045517557782912166
9984.0,28685.0,-0.03525004184921156
9994.0,28698.0,-0.025115819145501768
10004.0,28713.0,-0.015160028383485635
10014.0,28724.0,-0.005426362963022515
10024.0,28733.0,0.004043015132247287
10034.0,28737.0,0.013207569985568695
10044.0,28744.0,0.02202848749588255
10054.0,28748.0,0.03046876778232623
10064.0,28756.0,0.03849331245087251
10074.0,28761.0,0.046069005968320205
10084.0,28752.0,0.0531647905329827
10094.0,28757.0,0.059751735107326766
10104.0,28771.0,0.06580310208542094
10114.0,28764.0,0.07129441610278295
10124.0,28769.0,0.0762035371342335
10134.0,28771.0,0.08051073810130017
10144.0,28772.0,0.08419878793911142
10154.0,28785.0,0.0872530415783494
10164.0,28777.0,0.08966153672057685
10174.0,28781.0,0.09141509537824817
10184.0,28775.0,0.09250742832146558
10194.0,28769.0,0.09293524303954569
10204.0,28791.0,0.09269835820214169
10214.0,28781.0,0.09179982685713364
10224.0,28774.0,0.0902460666917318
10234.0,28785.0,0.08804699332716061
10244.0,28785.0,0.08521615405929814
10254.0,28781.0,0.08177086005602645
10265.0,28796.0,0.07773231267568355
10274.0,28793.0,0.07312571724739382
10284.0,28797.0,0.06798037593295506
10295.0,28790.0,0.06232975007050877
10304.0,28797.0,0.05621148345851773
10314.0,28789.0,0.04966738062144108
10324.0,28791.0,0.04274333575050179
10334.0,28806.0,0.0354892082653538
10344.0,28800.0,0.02795863955685835
10354.0,28807.0,0.020208802441645333
10364.0,28808.0,0.012300072896551478
10374.0,28809.0,0.004295614529918423
10384.0,28808.0,-0.003739131800392316
10394.0,28799.0,-0.011737058748770351
10404.0,28799.0,-0.019630105903836566
10414.0,28781.0,-0.02735007372338409
10424.0,28757.0,-0.03482953067223426
10435.0,28738.0,-0.04200279919307047
10444.0,28698.0,-0.04880699664301719
10454.0,28656.0,-0.055183096976141155
10465.0,28631.0,-0.06107696878119986
10474.0,28611.0,-0.06644033729700452
10484.0,28603.0,-0.07123161739255685
10495.0,28599.0,-0.07541657330251972
10504.0,28611.0,-0.0789687749290523
10514.0,28618.0,-0.08186983534572959
10524.0,28632.0,-0.08410942805073389
10534.0,28660.0,-0.08568509433739724
10544.0,28683.0,-0.08660186097713977
10554.0,28704.0,-0.0868716976361619
10564.0,28722.0,-0.08651285091431486
10575.0,28739.0,-0.08554909462587407
10584.0,28740.0,-0.08400893377721798
10594.0,28749.0,-0.08192479437647103
10605.0,28759.0,-0.07933222409337594
10614.0,28762.0,-0.07626912238101917
10624.0,28768.0,-0.072775015111562
10635.0,28775.0,-0.06889038682233707
10644.0,28779.0,-0.06465608159863433
10654.0,28776.0,-0.060112781598589696
10665.0,28782.0,-0.05530056986104784
10674.0,28775.0,-0.05025858060108319
10684.0,28767.0,-0.04502473624970054
10695.0,28764.0,-0.03963556616395257
10704.0,28768.0,-0.03412609745095581
10715.0,28767.0,-0.028529806212290645
10724.0,28759.0,-0.022878618898068727
10734.0,28764.0,-0.01720295516253548
10745.0,28761.0,-0.011531803180459774
10754.0,28764.0,-0.005892817722474416
10764.0,28775.0,-0.0003124324519077769
10775.0,28774.0,0.00518401943092047
10784.0,28767.0,0.01057217935801349
10794.0,28764.0,0.015828535430870826
10805.0,28778.0,0.020930298701190488
10814.0,28773.0,0.025855292400541775
10824.0,28772.0,0.030581860861115796
10835.0,28796.0,0.035088801743071045
10844.0,28797.0,0.03935532287685554
10855.0,28794.0,0.0433610213916955
10865.0,28797.0,0.047085879990215
10874.0,28801.0,0.050510277345865315
10885.0,28804.0,0.05361501348892547
10895.0,28796.0,0.0563813519926117
10904.0,28803.0,0.05879108042845649
10915.0,28799.0,0.060826591537398216
10925.0,28804.0,0.06247098840341111
10934.0,28814.0,0.06370821580291253
10945.0,28810.0,0.0645232171833539
10954.0,28798.0,0.06490211428061919
10964.0,28822.0,0.06483240672404166
10975.0,28810.0,0.06430319086678012
10984.0,28812.0,0.06330539632796048
10994.0,28822.0,0.061832036385983453
11005.0,28818.0,0.05987846774667873
11014.0,28823.0,0.057442654836943545
11024.0,28825.0,0.054525432515409734
11035.0,28823.0,0.05113076060016673
11044.0,28821.0,0.04726596408936405
1055.0,28817.0,0.0429419541023715
11065.0,28832.0,0.038173426124045104
11074.0,28834.0,0.0329790317900925
11085.0,28814.0,0.027381517346218187
11095.0,28836.0,0.021407820253328463
11104.0,28828.0,0.015089117603309816
11115.0,28822.0,0.008460821697633505
11125.0,28838.0,0.0015625173358386594
11134.0,28836.0,-0.005562165223011448
11145.0,28839.0,-0.012865748593399999
11155.0,28843.0,-0.020297186796631297
11164.0,28841.0,-0.02780223312045704
11175.0,28829.0,-0.035323904250595985
11185.0,28843.0,-0.042803044161823414
11194.0,28832.0,-0.05017898777760257
11205.0,28818.0,-0.057390322550457264
11215.0,28805.0,-0.06437574384239789
11224.0,28773.0,-0.07107499340500595
11235.0,28732.0,-0.07742985976757723
11245.0,28709.0,-0.08338520720508237
11254.0,28673.0,-0.08888998857920953
11265.0,28652.0,-0.09389819095692972
11275.0,28652.0,-0.09836966374547076
11284.0,28651.0,-0.10227078655934499
11295.0,28654.0,-0.10557494739296544
11305.0,28669.0,-0.10826281739602989
11315.0,28681.0,-0.1103224218240103
11325.0,28709.0,-0.11174901716197272
11335.0,28722.0,-0.11254479393812021
11345.0,28746.0,-0.11271843293999508
11355.0,28755.0,-0.11228454742701569
11365.0,28775.0,-0.11126304473954214
11375.0,28787.0,-0.10967843883764644
11385.0,28791.0,-0.10755914266865411
11395.0,28796.0,-0.10493676589203439
11405.0,28806.0,-0.10184543843048448
11415.0,28810.0,-0.098321174943974
11425.0,28813.0,-0.09440129205472214
11435.0,28820.0,-0.0901238884137941
11445.0,28817.0,-0.08552739555650814
11455.0,28811.0,-0.08065020450477323
11465.0,28815.0,-0.07553036907298044
11475.0,28813.0,-0.0702053824099334
11485.0,28808.0,-0.06471202057541993
11495.0,28815.0,-0.05908624621854968
11505.0,28804.0,-0.05336316498747823
11515.0,28795.0,-0.047577026241467
11525.0,28812.0,-0.041761257626107814
11535.0,28808.0,-0.03594852176761509
11545.0,28803.0,-0.030170785574602316
11555.0,28805.0,-0.024459395899105833
11565.0,28807.0,-0.018845155060929663
11575.0,28810.0,-0.013358388080543382
11585.0,28823.0,-0.008028994607505379
11595.0,28820.0,-0.0028864820769679525
11605.0,28816.0,0.0020400203269523723
11615.0,28837.0,0.006721766974196521
11625.0,28829.0,0.011130421482216029
11636.0,28827.0,0.015238103348340219
11645.0,28837.0,0.019017455368003606
11655.0,28832.0,0.022441733179851705
11665.0,28832.0,0.025484919518061377
11675.0,28851.0,0.028121865108851524
11685.0,28842.0,0.030328456423704343
11695.0,28835.0,0.032081808170330815
11705.0,28849.0,0.03336047804210296
11715.0,28852.0,0.03414470341562528
11725.0,28845.0,0.03441665958868646
11735.0,28850.0,0.03416073637831506
11745.0,28848.0,0.03336382939790207
11755.0,28853.0,0.03201564391602045
11765.0,28856.0,0.03010900904333055
11775.0,28852.0,0.027640198028516954
11785.0,28845.0,0.024609249294731607
11795.0,28849.0,0.021020284119463675
11805.0,28859.0,0.016881818903900735
11815.0,28850.0,0.01220706913477458
11825.0,28858.0,0.0070142386167543255
11835.0,28850.0,0.001326785604348322
11845.0,28859.0,-0.004826341706578795
11855.0,28859.0,-0.011410507105130184
11865.0,28868.0,-0.01838523362809963
11875.0,28865.0,-0.025704106406376936
11885.0,28864.0,-0.033314742852890614
11895.0,28869.0,-0.04115884110201214
11905.0,28866.0,-0.04917231534529148
11915.0,28858.0,-0.05728552494520777
11925.0,28869.0,-0.06542360266650404
11935.0,28866.0,-0.07350688568827
11945.0,28864.0,-0.08145145284877425
11955.0,28868.0,-0.08916977234084197
11965.0,28867.0,-0.09657146346396174
11975.0,28849.0,-0.10356417407276243
11986.0,28851.0,-0.11005457209970644
11995.0,28831.0,-0.11594944405628599
12005.0,28805.0,-0.1211568869108822
12016.0,28783.0,-0.125587572644985
12025.0,28750.0,-0.12915605576700823
12035.0,28733.0,-0.13178208488576665
12046.0,28720.0,-0.133391874131706
12055.0,28709.0,-0.1339192908660872
12065.0,28704.0,-0.13330692196426833
12076.0,28723.0,-0.1315069893959047
12085.0,28725.0,-0.12848209574673897
12095.0,28738.0,-0.12420579172559935
12106.0,28756.0,-0.11866296773386356
12115.0,28765.0,-0.11185007772779622
12125.0,28783.0,-0.10377520725739717
12136.0,28802.0,-0.09445800017094552
12145.0,28810.0,-0.08392946014343029
12155.0,28820.0,-0.07223164382189554
12166.0,28833.0,-0.05941726092805966
12175.0,28839.0,-0.04554919328978601
12185.0,28847.0,-0.030699941678497957
12196.0,28860.0,-0.014951007225280803
12205.0,28859.0,0.0016077875464947401
12215.0,28845.0,0.018879035193325785
12226.0,28840.0,0.0367585394636339
12235.0,28834.0,0.055136181793557795
12245.0,28835.0,0.07389687636593337
12256.0,28876.0,0.09292163242884598
12266.0,28917.0,0.11208873326130542
12275.0,28976.0,0.13127502161179683
12285.0,29029.0,0.15035725637913658
12295.0,29065.0,0.16921348409978051
12305.0,29117.0,0.1877243594608781
12316.0,29161.0,0.20577435580930536
12326.0,29184.0,0.22325282750789338
12336.0,29203.0,0.24005491053693975
12345.0,29205.0,0.256082264683905
12355.0,29177.0,0.2712436677355579
12365.0,29171.0,0.28545547390795917
12376.0,29173.0,0.29864194919724135
12386.0,29159.0,0.3107354964999445
12396.0,29136.0,0.3216767833170454
12405.0,29126.0,0.3314147846314617
12415.0,29110.0,0.3399067531468977
12425.0,29098.0,0.3471181285099392
12436.0,29088.0,0.3530223964219299
12446.0,29079.0,0.3576009076979881
12456.0,29073.0,0.36084266636393386
12465.0,29074.0,0.36274409481492303
12475.0,29068.0,0.36330878290972285
12485.0,29064.0,0.3625472267561022
12496.0,29065.0,0.3604765621381449
12506.0,29064.0,0.35712029701093134
12516.0,29068.0,0.35250804645678596
12525.0,29066.0,0.34667527134816734
12535.0,29069.0,0.3396630193476118
12545.0,29062.0,0.3315176650784498
12556.0,29062.0,0.3222906459216679
12566.0,29068.0,0.3120381902188501
12576.0,29052.0,0.30082103426705953
12585.0,29050.0,0.28870412377280746
12595.0,29051.0,0.2757562964259481
12605.0,29041.0,0.2620499440147301
12616.0,29045.0,0.24766065217192482
12626.0,29041.0,0.2326668139083373
12636.0,29014.0,0.2171492119636728
12645.0,28991.0,0.20119056720816175
12655.0,28968.0,0.18487505811149288
12666.0,28947.0,0.1682878267909709
12676.0,28942.0,0.15151449338884043
12686.0,28923.0,0.13464069948603707
12695.0,28949.0,0.11775169490013714
12705.0,28965.0,0.10093197190031239
12716.0,28982.0,0.08426493616609831
12726.0,28990.0,0.0678325881597457
12736.0,29002.0,0.05171517959541214
12746.0,28989.0,0.03599081032551371
12755.0,28958.0,0.0207349387106154
12766.0,28902.0,0.006019793346594895
12776.0,28868.0,-0.008086303160480025
12786.0,28853.0,-0.021519663603764585
12796.0,28820.0,-0.034221971116182213
12805.0,28809.0,-0.046140974445958424
12816.0,28787.0,-0.05723110749203814
12826.0,28783.0,-0.06745400450514262
12836.0,28780.0,-0.07677888850027142
12846.0,28777.0,-0.08518281785455759
12855.0,28775.0,-0.09265078426310021
12866.0,28781.0,-0.09917566188612263
12876.0,28770.0,-0.10475801170043783
12886.0,28782.0,-0.10940574743881792
12896.0,28794.0,-0.11313367118543086
12905.0,28796.0,-0.11596288981191066
12916.0,28793.0,-0.11792012811303344
12926.0,28819.0,-0.11903695691279223
12936.0,28834.0,-0.11934895449890141
12946.0,28846.0,-0.1188948228435046
12956.0,28875.0,-0.11771548639861153
12966.0,28881.0,-0.11585320569718069
12976.0,28900.0,-0.1133507389386497
12986.0,28902.0,-0.11025058302769093
12996.0,28915.0,-0.10659432108597423
13006.0,28897.0,-0.10242209698334323
13016.0,28909.0,-0.09777222959666654
13026.0,28898.0,-0.09268097085224368
13036.0,28889.0,-0.08718240436251111
13046.0,28883.0,-0.08130847631826263
13056.0,28870.0,-0.07508914530747503
13066.0,28872.0,-0.06855263303786759
13076.0,28855.0,-0.061725755510049767
13086.0,28853.0,-0.05463431370143127
13096.0,28845.0,-0.04730352239701184
13106.0,28847.0,-0.03975845537011169
13117.0,28846.0,-0.03202448634015112
13126.0,28844.0,-0.02412770829266928
13136.0,28847.0,-0.016095317024567728
13146.0,28864.0,-0.007955947301250202
13157.0,28865.0,0.0002600465274068644
13166.0,28866.0,0.008520368635311202
13176.0,28868.0,0.01679061874834206
13186.0,28880.0,0.025034189430419945
13196.0,28879.0,0.033212226653287984
13206.0,28899.0,0.041283655416555355
13216.0,28894.0,0.04920526909534546
13226.0,28899.0,0.056931878903400554
13236.0,28903.0,0.06441652000307121
13246.0,28908.0,0.07161071281032866
13256.0,28905.0,0.07846477932956052
13266.0,28915.0,0.08492821414632402
13277.0,28916.0,0.09095010925938811
13286.0,28932.0,0.09647963081344207
13296.0,28936.0,0.10146654287511372
13306.0,28938.0,0.10586176971559551
13317.0,28938.0,0.10961798628504993
13326.0,28949.0,0.11269022790878974
13336.0,28944.0,0.11503651237494834
13346.0,28952.0,0.11661846794208451
13357.0,28951.0,0.11740196019108197
13366.0,28959.0,0.11735771038911574
13376.0,28948.0,0.1164618977197313
13386.0,28968.0,0.11469673748950913
13397.0,28968.0,0.1120510270622199
13406.0,28978.0,0.10852064899555246
13416.0,28971.0,0.10410901734199828
13426.0,28975.0,0.0988274521748655
13437.0,28983.0,0.09269546992481305
13446.0,28979.0,0.08574097935656831
13456.0,28983.0,0.07800037286967447
13466.0,28994.0,0.06951850211562287
13477.0,28992.0,0.06034852659597666
13486.0,29000.0,0.05055162289492254
13496.0,28990.0,0.0401965416595445
13506.0,28974.0,0.02935900201772758
13517.0,28969.0,0.018120919648939058
13526.0,28939.0,0.006569473532067287
13536.0,28917.0,-0.005203974995770443
13546.0,28889.0,-0.017105089111918114
13557.0,28862.0,-0.029037859453234862
13567.0,28844.0,-0.04090596711993163
13576.0,28822.0,-0.052614168546858256
13586.0,28797.0,-0.06406966536024461
13597.0,28782.0,-0.07518342478148879
13607.0,28755.0,-0.08587141779055478
13616.0,28745.0,-0.09605574342172257
13626.0,28723.0,-0.10566560938665737
13637.0,28720.0,-0.11463814217746394
13647.0,28723.0,-0.12291900452917874
13656.0,28720.0,-0.13046280564584398
13666.0,28718.0,-0.13723329903969655
13677.0,28734.0,-0.14320337079654294
13686.0,28746.0,-0.14835482673054026
13696.0,28759.0,-0.15267799342228827
13706.0,28787.0,-0.1561711562947196
13717.0,28797.0,-0.158839865124966
13726.0,28813.0,-0.1606961423114181
13736.0,28828.0,-0.161757630982767
13747.0,28851.0,-0.16204671871509788
13757.0,28859.0,-0.16158967100754446
13766.0,28870.0,-0.16041580800724783
13776.0,28871.0,-0.15855675550639828
13787.0,28879.0,-0.15604579529437168
13796.0,28863.0,-0.15291733232842886
13806.0,28854.0,-0.14920648799392716
13817.0,28849.0,-0.1449488192374777
13827.0,28826.0,-0.14018015391342417
13836.0,28829.0,-0.13493652604715498
13846.0,28827.0,-0.12925419162179472
13857.0,28816.0,-0.12316970598754773
13866.0,28804.0,-0.1167200466691922
13876.0,28809.0,-0.1099427660555487
13887.0,28798.0,-0.10287615672892582
13897.0,28798.0,-0.09555941202766627
13906.0,28812.0,-0.0880327667490816
13916.0,28801.0,-0.08033760629761028
13927.0,28820.0,-0.07251653676829845
13937.0,28816.0,-0.06461341218553127
13946.0,28827.0,-0.05667331744223009
13957.0,28821.0,-0.04874250691684919
13967.0,28840.0,-0.04086829910481058
13976.0,28838.0,-0.03309892756205558
13986.0,28842.0,-0.02548334961590265
13997.0,28851.0,-0.018071015630966338
14007.0,28852.0,-0.010911601571664863
14016.0,28864.0,-0.004054707482667888
14027.0,28852.0,0.0024504747420225526
14037.0,28873.0,0.008555520812810623
14047.0,28874.0,0.014213157818587417
14056.0,28886.0,0.019377668194183427
14067.0,28871.0,0.024005306850994917
14077.0,28884.0,0.028054724058617832
14086.0,28882.0,0.031487389942587006
14097.0,28886.0,0.034268018956766816
14107.0,28884.0,0.03636499196522684
14117.0,28886.0,0.03775077231384585
14126.0,28895.0,0.038402312213342775
14137.0,28881.0,0.03830144544954436
14147.0,28896.0,0.03743526164880729
14156.0,28892.0,0.035796457201724446
14166.0,28904.0,0.03338365735876169
14177.0,28901.0,0.030201701593134473
14187.0,28908.0,0.026261881795593783
14196.0,28904.0,0.02158212220630415
14207.0,28904.0,0.016187091044729037
14217.0,28914.0,0.010108235481465038
14227.0,28904.0,0.0033837325235616614
14236.0,28921.0,-0.003941652070547143
14247.0,28913.0,-0.011816805663627755
14257.0,28924.0,-0.020184620935166226
14267.0,28905.0,-0.02898246794052367
14277.0,28901.0,-0.0381427930727698
14287.0,28875.0,-0.04759384571773482
14297.0,28857.0,-0.0572605246046863
14306.0,28833.0,-0.06706532677171725
14317.0,28799.0,-0.07692937418681782
14327.0,28780.0,-0.08677348670127236
14337.0,28763.0,-0.0965192655298936
14346.0,28749.0,-0.1060901508455107
14357.0,28727.0,-0.11541242119229402
14367.0,28730.0,-0.1244161081638225
14377.0,28715.0,-0.1330358047434283
14387.0,28719.0,-0.14121135115178976
14397.0,28712.0,-0.14888838840408047
14407.0,28712.0,-0.1560187752581929
14416.0,28708.0,-0.16256086797426667
14427.0,28715.0,-0.16847966476091364
14437.0,28714.0,-0.1737468190515646
14447.0,28727.0,-0.17834052890947968
14457.0,28732.0,-0.18224531383445436
14467.0,28742.0,-0.1854516942871493
14477.0,28751.0,-0.18795579255793823
14487.0,28747.0,-0.1897588752472852
14497.0,28769.0,-0.19086685715211218
14507.0,28767.0,-0.191289784960284
14517.0,28782.0,-0.19104131886369374
14527.0,28784.0,-0.1901382307996346
14537.0,28786.0,-0.188599937395556
14547.0,28786.0,-0.1864480829398087
14557.0,28789.0,-0.18370618343651662
14567.0,28777.0,-0.1803993381760507
14577.0,28777.0,-0.17655401083730304
14587.0,28779.0,-0.17219787773335082
14597.0,28769.0,-0.1673597375918107
14607.0,28762.0,-0.16206947602590896
14617.0,28751.0,-0.1563580761040279
14627.0,28755.0,-0.15025766275656546
14637.0,28748.0,-0.1438015661937251
14647.0,28756.0,-0.13702439062666386
14657.0,28746.0,-0.12996207788168523
14667.0,28761.0,-0.12265195826559609
14677.0,28754.0,-0.11513278277287649
14687.0,28765.0,-0.1074447324443884
14697.0,28760.0,-0.09962940237867829
14707.0,28762.0,-0.09172975848541344
14717.0,28766.0,-0.08379006433562314
14727.0,28775.0,-0.07585577476485827
14737.0,28768.0,-0.06797339382371104
14747.0,28789.0,-0.06019029673230173
14757.0,28787.0,-0.05255451728948817
14767.0,28788.0,-0.045114503964323815
14777.0,28794.0,-0.037918848990765565
14787.0,28802.0,-0.031015993861673252
14797.0,28796.0,-0.024453913565977505
14807.0,28806.0,-0.018279782263815523
14817.0,28804.0,-0.01253962315745395
14827.0,28804.0,-0.007277944656472506
14837.0,28820.0,-0.0025373648383492033
14847.0,28810.0,0.001641772822782446
14857.0,28819.0,0.005221787841670635
14867.0,28806.0,0.008168050136026735
14877.0,28822.0,0.010449363183182816
14887.0,28818.0,0.0120383411781233
14897.0,28815.0,0.012911777341838715
14907.0,28826.0,0.013050998514454704
14917.0,28824.0,0.012442200369083618
14928.0,28818.0,0.011076756998201815
14937.0,28831.0,0.008951497974996387
14947.0,28820.0,0.006068946301502203
14957.0,28835.0,0.0024375107441091228
14968.0,28826.0,-0.001928375034599658
14977.0,28838.0,-0.007008175333003605
14987.0,28836.0,-0.012775246838631946
14997.0,28838.0,-0.019196914859296817
15008.0,28835.0,-0.026234641668514042
15017.0,28825.0,-0.033844295763907205
15027.0,28814.0,-0.04197652713557477
15037.0,28795.0,-0.05057724801810023
15048.0,28787.0,-0.05958821208820424
15058.0,28763.0,-0.06894767943538889
15067.0,28740.0,-0.0785911507166279
15077.0,28725.0,-0.08845215038777889
15087.0,28712.0,-0.09846303549801967
15098.0,28681.0,-0.10855580546196376
15107.0,28672.0,-0.1186628892776303
15117.0,28641.0,-0.12871788678728655
15127.0,28626.0,-0.13865623946810074
15138.0,28621.0,-0.14841580607362412
15147.0,28610.0,-0.15793732113577466
15157.0,28608.0,-0.1671647207523332
15167.0,28613.0,-0.1760453283641347
15178.0,28627.0,-0.18452990124857438
15187.0,28637.0,-0.19257254716722888
15197.0,28652.0,-0.20013053024501645
15207.0,28655.0,-0.20716399279751557
15218.0,28666.0,-0.21363562298507766
15228.0,28671.0,-0.21951029731555186
15237.0,28677.0,-0.2247547244695099
15247.0,28667.0,-0.22933711413267235
15258.0,28677.0,-0.23322689067348787
15268.0,28684.0,-0.23639446675673323
15277.0,28689.0,-0.238811089588493
15287.0,28682.0,-0.2404487734300042
15298.0,28690.0,-0.2412803320179663
15308.0,28675.0,-0.24127952071448952
15317.0,28667.0,-0.24042129235025114
15327.0,28653.0,-0.23868216407722745
15337.0,28625.0,-0.2360406846891617
15348.0,28627.0,-0.23247798366526876
15358.0,28609.0,-0.22797837713197214
15367.0,28598.0,-0.22253000426906072
15377.0,28585.0,-0.2161254690032296
15388.0,28580.0,-0.2087624623842916
15398.0,28578.0,-0.20044434096989677
15407.0,28586.0,-0.19118063899382134
15418.0,28585.0,-0.1809874977430267
15428.0,28592.0,-0.16988800210662866
15437.0,28596.0,-0.1579124190034578
15447.0,28608.0,-0.1450983348982764
15458.0,28596.0,-0.13149069121631704
15468.0,28614.0,-0.11714171701135823
15477.0,28621.0,-0.10211075740087207
15487.0,28640.0,-0.08646399701289174
15498.0,28645.0,-0.07027408214252485
15508.0,28656.0,-0.05361965022735698
15517.0,28667.0,-0.03658477679683986
15527.0,28663.0,-0.019258348731702155
15538.0,28678.0,-0.0017333704110033793
15548.0,28683.0,0.015893792976869367
15557.0,28694.0,0.03352423157633321
15568.0,28701.0,0.05105736172838406
15578.0,28723.0,0.06839184461661607
15587.0,28719.0,0.08542654357377504
15597.0,28728.0,0.10206150924606457
15608.0,28731.0,0.11819898259999435
15618.0,28754.0,0.13374440849807784
15627.0,28766.0,0.14860745263309796
15638.0,28768.0,0.1627030102119729
15648.0,28788.0,0.17595219044927177
15658.0,28787.0,0.1882832605222284
15667.0,28804.0,0.1996325342813298
15678.0,28814.0,0.20994519175181642
15688.0,28844.0,0.21917601438603937
15697.0,28857.0,0.22729001726124323
15708.0,28868.0,0.23426295389983828
15718.0,28878.0,0.2400816665482537
15728.0,28871.0,0.2447442576885854
15737.0,28873.0,0.24826006586227986
15748.0,28866.0,0.25064943758561314
15758.0,28865.0,0.2519432948278452
15767.0,28840.0,0.2521825030395598
15778.0,28811.0,0.2514170502202494
15788.0,28776.0,0.24970505687213101
15798.0,28750.0,0.24711164963573168
15808.0,28737.0,0.24370774204561269
15818.0,28711.0,0.23956876849792916
15828.0,28708.0,0.23477341260365853
15837.0,28684.0,0.22940236360909605
15848.0,28675.0,0.2235371283110829
15858.0,28665.0,0.2172589216863116
15868.0,28661.0,0.21064765612506303
15878.0,28659.0,0.2037810445923337
15888.0,28644.0,0.19673382703135212
15898.0,28658.0,0.1895771241943109
15908.0,28659.0,0.1823779192123001
15918.0,28657.0,0.1751986621218822
15928.0,28647.0,0.16809698703742568
15938.0,28648.0,0.1611255302746324
15948.0,28649.0,0.1543318404969468
15958.0,28646.0,0.14775837353316645
15968.0,28648.0,0.14144256275704611
15977.0,28652.0,0.13541695341806972
15988.0,28661.0,0.12970938733766557
15998.0,28637.0,0.12434322237026722
16008.0,28641.0,0.11933757115761091
16018.0,28635.0,0.11470754826256818
16028.0,28638.0,0.11046451987374209
16038.0,28634.0,0.10661635078337674
16048.0,28627.0,0.10316764093906469
16058.0,28627.0,0.10011994318056781
16068.0,28617.0,0.09747195554847798
16078.0,28615.0,0.09521968381920685
16088.0,28600.0,0.09335657186218958
16098.0,28592.0,0.09187359980671732
16108.0,28584.0,0.09075935318583668
16118.0,28577.0,0.09000006895662226
16128.0,28560.0,0.08957966537146911
16138.0,28551.0,0.08947976321627514
16148.0,28554.0,0.0896797073309922
16158.0,28543.0,0.09015659764182647
16168.0,28538.0,0.09088533630039143
16178.0,28527.0,0.09183869473952022
16188.0,28518.0,0.09298740467738366
16198.0,28526.0,0.09430027883109023
16208.0,28531.0,0.09574436638789752
16218.0,28523.0,0.09728514341806067
16228.0,28522.0,0.09888673284170792
16238.0,28521.0,0.10051214725273466
16249.0,28510.0,0.10212355033486438
16258.0,28511.0,0.10368253499149885
16268.0,28512.0,0.10515041747015982
16278.0,28495.0,0.10648854680267343
16288.0,28493.0,0.1076586285741729
16298.0,28489.0,0.1086230632850165
16308.0,28492.0,0.10934530116169934
16318.0,28484.0,0.1097902138863509
16328.0,28483.0,0.109924480351305
16339.0,28472.0,0.10971698195156959
16348.0,28477.0,0.10913920374648783
16358.0,28476.0,0.10816563848933029
16368.0,28460.0,0.10677418925051836
16378.0,28465.0,0.10494656492127385
16388.0,28457.0,0.10266866356286847
16398.0,28456.0,0.09993093962241478
16408.0,28458.0,0.09672875005104103
16418.0,28444.0,0.09306267240875418
16429.0,28452.0,0.08893878707456014
16439.0,28447.0,0.08436891573861027
16448.0,28457.0,0.07937080765544274
16458.0,28450.0,0.07396826253862686
16468.0,28440.0,0.06819117663061389
16478.0,28452.0,0.06207549933477733
16488.0,28450.0,0.055663090426122226
16498.0,28450.0,0.04900146800152522
16509.0,28420.0,0.04214343591325301
16519.0,28415.0,0.03514658274378195
16528.0,28398.0,0.02807265368176046
16538.0,28368.0,0.02098680574386854
16548.0,28345.0,0.013956762491450347
16558.0,28325.0,0.007051889779591516
16568.0,28296.0,0.00034221966040998576
16578.0,28269.0,-0.006102547358750524
16589.0,28246.0,-0.012214030181636477
16599.0,28231.0,-0.01792611247576295
16609.0,28216.0,-0.023175813946933802
16618.0,28209.0,-0.027904060844404686
16628.0,28206.0,-0.03205633616610471
16638.0,28198.0,-0.03558319753905735
16648.0,28199.0,-0.038440657476928534
16658.0,28211.0,-0.040590426151656846
16669.0,28211.0,-0.042000022171716174
16679.0,28207.0,-0.042642762818482186
16689.0,28219.0,-0.042497648958401184
16698.0,28226.0,-0.0415491601658789
16708.0,28236.0,-0.03978697630043287
16718.0,28229.0,-0.037205644667674675
16728.0,28256.0,-0.03380421353638766
16738.0,28261.0,-0.02958585237820283
16749.0,28266.0,-0.02455748017600384
16759.0,28258.0,-0.018729424566532833
16769.0,28258.0,-0.012115131125327942
16779.0,28252.0,-0.004730933730070414
16788.0,28252.0,0.0034041108421975683
16798.0,28231.0,0.01226832543963742
16808.0,28232.0,0.02183745705234107
16818.0,28225.0,0.03208467246185291
16829.0,28227.0,0.04298051690677791
16839.0,28222.0,0.05449284666608175
16849.0,28208.0,0.06658674410360248
16859.0,28205.0,0.07922442393506605
16868.0,28205.0,0.09236514248599219
16878.0,28208.0,0.10596512351967328
16888.0,28198.0,0.11997751213230391
16898.0,28201.0,0.13435236497926736
16909.0,28209.0,0.14903668401953254
16919.0,28206.0,0.16397450031379837
16929.0,28213.0,0.1791070118007011
16939.0,28219.0,0.1943727760643497
16949.0,28222.0,0.2097079574139704
16958.0,28229.0,0.22504662614523802
16968.0,28224.0,0.2403211066765805
16978.0,28232.0,0.2554623715172907
16989.0,28238.0,0.27040047921526655
16999.0,28243.0,0.2850650544139641
17009.0,28241.0,0.29938580626699274
17019.0,28255.0,0.3132930798284385
17029.0,28261.0,0.32671843451519356
17038.0,28266.0,0.3395952422779736
17048.0,28257.0,0.3518592959265104
17059.0,28270.0,0.36344941845671613
17069.0,28278.0,0.37430806690724283
17079.0,28285.0,0.38438192438285923
17089.0,28278.0,0.39362247038696613
17099.0,28279.0,0.4019865177511696
17109.0,28286.0,0.40943670715198416
17118.0,28285.0,0.41594195346361285
17129.0,28283.0,0.42147783820000384
17139.0,28290.0,0.4260269409125908
17149.0,28291.0,0.42957910204006833
17159.0,28292.0,0.4321316092307112
17169.0,28296.0,0.43368929793748723
17179.0,28300.0,0.4342645563475376
17188.0,28301.0,0.4338772243941786
17199.0,28275.0,0.4325543767962489
17209.0,28264.0,0.43032998377521287
17219.0,28239.0,0.4272444521475912
17229.0,28228.0,0.4233440598972821
17239.0,28196.0,0.4186803038742415
17249.0,28181.0,0.41330918303531283
17258.0,28154.0,0.40729044161241523
17269.0,28140.0,0.40068679818507563
17279.0,28102.0,0.3935631868014806
17289.0,28096.0,0.38598603588098973
17299.0,28098.0,0.37802260969545937
17309.0,28090.0,0.36974043186873085
17319.0,28085.0,0.3612067992999576
17329.0,28099.0,0.35248838419319256
17338.0,28103.0,0.34365091508157997
17349.0,28094.0,0.33475892193914586
17359.0,28070.0,0.3258755266198975
17369.0,28069.0,0.3170622634607642
17379.0,28064.0,0.30837892386957405
17389.0,28072.0,0.29988342343018953
17399.0,28080.0,0.2916316859858613
17409.0,28070.0,0.28367753099965365
17419.0,28077.0,0.2760725450891802
17429.0,28082.0,0.26886591847672164
17439.0,28083.0,0.2621042288810899
17449.0,28075.0,0.25583115575866144
17459.0,28060.0,0.25008710921019633
17469.0,28037.0,0.2449087642259518
17479.0,28024.0,0.2403285014617922
17489.0,28006.0,0.23637376600842006
17499.0,27996.0,0.23306636170373426
17509.0,27966.0,0.23042170024238445
17519.0,27949.0,0.22844802528115116
17529.0,27929.0,0.2271456348545422
17539.0,27906.0,0.2265061292696048
17549.0,27881.0,0.22651171374043355
17559.0,27873.0,0.22713458578254855
17569.0,27860.0,0.2283364369920666
17579.0,27860.0,0.230068095082642
17589.0,27854.0,0.23226932472627945
17600.0,27848.0,0.23486879791229284
17609.0,27854.0,0.23778423879327992
17619.0,27838.0,0.24092274443916686
17629.0,27840.0,0.2441812808163788
17639.0,27840.0,0.24744735248476077
17649.0,27838.0,0.25059984367459476
17659.0,27833.0,0.25351002587500865
17670.0,27841.0,0.2560427240250424
17679.0,27841.0,0.25805763111938906
17689.0,27831.0,0.25941075842245
17699.0,27837.0,0.25995600621620946
17709.0,27844.0,0.2595468395248439
17719.0,27845.0,0.25803805195436785
17730.0,27836.0,0.25528759683274266
17740.0,27838.0,0.2511584621273308
17749.0,27847.0,0.245520566540098
17759.0,27838.0,0.23825265472519302
17769.0,27841.0,0.22924416718012147
17779.0,27846.0,0.21839705804951504
17790.0,27839.0,0.20562753335047826
17800.0,27842.0,0.19086768126148546
17809.0,27842.0,0.17406696525451723
17819.0,27847.0,0.15519355049844027
17829.0,27845.0,0.1342354327909537
17839.0,27840.0,0.1112013376312979
17849.0,27839.0,0.08612135723114034
17860.0,27827.0,0.05904729585389988
17869.0,27815.0,0.030052697669165705
17879.0,27796.0,-0.0007674639160807778
17889.0,27748.0,-0.03329744949562837
17899.0,27709.0,-0.06740177251134669
17909.0,27667.0,-0.10292656146411526
17920.0,27608.0,-0.13970123769956122
17930.0,27552.0,-0.17754046927544628
17939.0,27504.0,-0.21624635245373588
17949.0,27440.0,-0.2556107648952423
17959.0,27400.0,-0.295417830527011
17969.0,27348.0,-0.33544643583097095
17980.0,27323.0,-0.37547274037776424
17990.0,27288.0,-0.41527263131993514
18000.0,27258.0,-0.4546240815199308
18009.0,27245.0,-0.49330938112936695
18019.0,27219.0,-0.531117221049051
18029.0,27197.0,-0.5678446142887588
18039.0,27173.0,-0.6032986469776602
18050.0,27148.0,-0.6372980527989629
18060.0,27116.0,-0.6696746037497431
18070.0,27091.0,-0.7002743081423821
18080.0,27091.0,-0.7289584050045449
18089.0,27075.0,-0.7556041458866827
18099.0,27062.0,-0.7801053624806271
18109.0,27062.0,-0.8023728267821735
18120.0,27063.0,-0.8223344153235128
18130.0,27063.0,-0.839935092694084
18140.0,27053.0,-0.8551367343901064
18150.0,27050.0,-0.8679178115822656
18159.0,27050.0,-0.8782729583963068
18169.0,27050.0,-0.8862124390319438
18179.0,27031.0,-0.8917615306370152
18189.0,27024.0,-0.8949598360930666
18200.0,27015.0,-0.8958605356281111
18210.0,27014.0,-0.8945295799037896
18220.0,26998.0,-0.8910448247514773
18230.0,26997.0,-0.8854951095496383
18239.0,27002.0,-0.8779792842270071
18249.0,26990.0,-0.868605191518324
18259.0,26994.0,-0.8574886108802591
18270.0,27000.0,-0.8447521691784853
18280.0,27017.0,-0.8305242217958428
18290.0,27016.0,-0.8149377066899174
18300.0,27037.0,-0.7981289736215748
18310.0,27049.0,-0.7802365925226568
18319.0,27071.0,-0.7614001499171625
18329.0,27079.0,-0.74175904872476
18340.0,27098.0,-0.7214513307174498
18350.0,27109.0,-0.7006125408381342
18360.0,27131.0,-0.6793746506941035
18370.0,27135.0,-0.6578650571879291
18380.0,27146.0,-0.636205671041465
18390.0,27159.0,-0.6145121071024837
18399.0,27172.0,-0.5928929844932017
18409.0,27172.0,-0.571449342329435
18420.0,27186.0,-0.5502741754147187
18430.0,27194.0,-0.5294520919238368
18440.0,27190.0,-0.5090590923945204
18450.0,27182.0,-0.48916246674489416
18460.0,27190.0,-0.469820801201311
18469.0,27196.0,-0.4510840811483057
18479.0,27194.0,-0.4329938741567889
18490.0,27182.0,-0.4155835796454332
18500.0,27187.0,-0.3988787317474657
18510.0,27192.0,-0.38289733867805875
18520.0,27193.0,-0.3676502407475121
18530.0,27202.0,-0.35314147275039953
18540.0,27211.0,-0.3393686214120663
18549.0,27223.0,-0.3263231726441733
18559.0,27242.0,-0.3139908476405257
18570.0,27243.0,-0.3023519316741757
18580.0,27259.0,-0.2913816030504167
18590.0,27285.0,-0.2810502709284878
18600.0,27293.0,-0.2713239320432859
18610.0,27295.0,-0.2621645595051343
18620.0,27304.0,-0.2535305377687902
18629.0,27298.0,-0.2453771531524643
18640.0,27286.0,-0.23765714191123605
18650.0,27282.0,-0.2303212905441378
18660.0,27273.0,-0.22331907580434715
18670.0,27267.0,-0.21659932665985931
18680.0,27259.0,-0.21011088880720058
18690.0,27248.0,-0.2038032725260458
18700.0,27248.0,-0.19762726474612952
18710.0,27253.0,-0.19153548685473198
18720.0,27246.0,-0.1854828828802094
18730.0,27259.0,-0.1794271278807162
18740.0,27277.0,-0.17332895162500972
18750.0,27280.0,-0.1671523784601366
18760.0,27285.0,-0.16086489085914463
18770.0,27294.0,-0.15443752763950044
18780.0,27305.0,-0.14784492674099933
18790.0,27320.0,-0.14106532127631416
18800.0,27314.0,-0.13408049910748782
18810.0,27327.0,-0.12687573743290909
18820.0,27349.0,-0.1194397224206448
18830.0,27351.0,-0.1117644631170572
18840.0,27353.0,-0.10384521111722181
18851.0,27360.0,-0.09568039822911138
18860.0,27365.0,-0.0872716003603855
18870.0,27361.0,-0.07862353107577288
18880.0,27355.0,-0.0697440652933501
18890.0,27354.0,-0.060644289882274466
18900.0,27354.0,-0.05133857299826323
18910.0,27341.0,-0.04184464071596742
18921.0,27345.0,-0.03218364833200075
18930.0,27340.0,-0.02238023275096529
18940.0,27347.0,-0.012462532123652791
18950.0,27344.0,-0.002462160906912402
18960.0,27345.0,0.00758586841399387
18970.0,27356.0,0.017643283583588642
18980.0,27364.0,0.02766875568503213
18991.0,27369.0,0.03761816862219159
19001.0,27376.0,0.047444952397665816
19010.0,27387.0,0.057100475323443256
19020.0,27386.0,0.0665344897972161
19030.0,27400.0,0.07569562603725952
19040.0,27417.0,0.08453192763615563
19050.0,27430.0,0.09299142066804877
19061.0,27418.0,0.10102270419012338
19071.0,27439.0,0.10857554859633739
19080.0,27453.0,0.11560149132770121
19090.0,27461.0,0.12205442105344913
19100.0,27465.0,0.1278911382688687
19110.0,27464.0,0.1330718780319362
19120.0,27468.0,0.13756078369548502
19131.0,27458.0,0.1413263261127436
19141.0,27463.0,0.14434166742874097
19150.0,27453.0,0.14658497179411098
19160.0,27447.0,0.1480396675365645
19170.0,27447.0,0.14869466696623931
19180.0,27453.0,0.14854455087175614
19190.0,27447.0,0.14758972321743946
19201.0,27446.0,0.1458365379366577
19211.0,27441.0,0.14329739759248308
19221.0,27438.0,0.13999082449348957
19230.0,27445.0,0.1359415061234257
19240.0,27442.0,0.1311803159543301
19250.0,27443.0,0.12574430792489935
19260.0,27452.0,0.11967668008930357
19271.0,27454.0,0.11302670105228382
19281.0,27450.0,0.10584959088741185
19291.0,27471.0,0.09820634667289904
19300.0,27477.0,0.09016350171506811
19310.0,27482.0,0.0817928048819518
19320.0,27481.0,0.07317080333152537
19330.0,27470.0,0.06437831305483852
19341.0,27467.0,0.05549976817029164
19351.0,27446.0,0.0466224484440723
19361.0,27428.0,0.03783559256513993
19371.0,27411.0,0.029229412347693932
19380.0,27384.0,0.0208940303251727
19390.0,27356.0,0.012918369254306894
19400.0,27340.0,0.005389027005361932
19411.0,27330.0,-0.0016108263034770442
19421.0,27313.0,-0.00800249302117113
19431.0,27306.0,-0.013712704045345511
19441.0,27305.0,-0.018674461898174302
19450.0,27303.0,-0.022827751725413837
19460.0,27311.0,-0.026120107285326124
19470.0,27318.0,-0.028507026162818135
19481.0,27329.0,-0.02995223542934819
19491.0,27331.0,-0.030427814921201276
19501.0,27321.0,-0.02991418856771666
19511.0,27334.0,-0.02839999289105652
19520.0,27356.0,-0.02588182823519798
19530.0,27359.0,-0.022363898924194468
19541.0,27383.0,-0.01785755501920307
19551.0,27417.0,-0.012380755259883459
19561.0,27420.0,-0.005957475840414063
19570.0,27432.0,0.001382906431683309
19580.0,27446.0,0.009606228816785602
19591.0,27453.0,0.018674133779152904
19601.0,27470.0,0.028544621328019725
19611.0,27464.0,0.03917255023894374
19621.0,27469.0,0.0505100786987219
19630.0,27483.0,0.06250703999200868
19640.0,27472.0,0.07511125395886442
19651.0,27489.0,0.08826877766429088
19661.0,27491.0,0.10192410004548207
19671.0,27485.0,0.11602028640996788
19680.0,27495.0,0.1304990798276622
19690.0,27490.0,0.14530096879105808
19701.0,27497.0,0.1603652331930491
19711.0,27512.0,0.17562998142309713
19721.0,27517.0,0.1910321895029646
19730.0,27525.0,0.20650774943759576
19740.0,27537.0,0.22199153076677838
19751.0,27543.0,0.23741745838588638
19761.0,27559.0,0.25271860957115116
19771.0,27556.0,0.2678273324457074
19781.0,27574.0,0.2826753878028396
19790.0,27583.0,0.29719411667399087
19801.0,27592.0,0.31131463569350315
19811.0,27609.0,0.32496806037557163
19821.0,27614.0,0.3380857542972348
19831.0,27621.0,0.3505996010990319
19840.0,27630.0,0.3624422965673816
19851.0,27624.0,0.373547659894119
19861.0,27638.0,0.38385096570562055
19871.0,27650.0,0.3932893001219301
19881.0,27651.0,0.40180194307267947
19890.0,27657.0,0.409330775781444
19901.0,27659.0,0.4158207105276437
19911.0,27665.0,0.4212201409218996
19921.0,27675.0,0.42548141198691697
19931.0,27675.0,0.42856130816678834
19941.0,27679.0,0.43042155516389574
19951.0,27686.0,0.43102933034611496
19961.0,27679.0,0.4303577766088269
19971.0,27686.0,0.4283865149816183
19981.0,27688.0,0.42510215167372445
19991.0,27687.0,0.4204987751016318
20000.0,27709.0,0.41457843670658523
20011.0,27705.0,0.40735160587839214
20021.0,27710.0,0.39883758498663735
20031.0,27726.0,0.3890648677444531
20041.0,27724.0,0.3780714236511594
20051.0,27731.0,0.3659048908007834
20061.0,27744.0,0.35262265855630387
20071.0,27748.0,0.33829182140931235
20081.0,27742.0,0.3229889849891675
20091.0,27752.0,0.3067999058282113
20101.0,27736.0,0.28981895009098335
20111.0,27723.0,0.27214836195431363
20121.0,27696.0,0.25389733945133103
20131.0,27669.0,0.23518092583234743
20141.0,27637.0,0.21611873648834573
20151.0,27604.0,0.19683355213760442
20161.0,27568.0,0.17744981697360987
20171.0,27538.0,0.15809208598763708
20181.0,27505.0,0.13888346883537445
20191.0,27481.0,0.11994411814616183
20201.0,27468.0,0.10138980780575699
20211.0,27457.0,0.08333064096784337
20221.0,27436.0,0.06586991863129169
20232.0,27441.0,0.04910319045673567
20241.0,27446.0,0.03311750211643388
20251.0,27440.0,0.01799084554496765
20261.0,27447.0,0.0037918092259481826
20271.0,27468.0,-0.009420581511815367
20281.0,27467.0,-0.021596849374316482
20292.0,27476.0,-0.03269689592682382
20301.0,27487.0,-0.042689702831934184
20311.0,27498.0,-0.05155292798303675
20321.0,27511.0,-0.05927242077666695
20331.0,27517.0,-0.06584168217243189
20341.0,27523.0,-0.0712612958469423
20351.0,27523.0,-0.07553835463495914
20362.0,27527.0,-0.0786859019314565
20371.0,27532.0,-0.08072240261144707
20381.0,27534.0,-0.0816712542682835
20391.0,27530.0,-0.08156034745588793
20401.0,27534.0,-0.08042168138395774
20411.0,27533.0,-0.07829103816786345
20422.0,27515.0,-0.07520771520212984
20432.0,27525.0,-0.07121431139770756
20441.0,27521.0,-0.06635655869438051
20451.0,27522.0,-0.06068318817342702
20461.0,27523.0,-0.05424582140627701
20471.0,27524.0,-0.04709887923597431
20481.0,27536.0,-0.0392995005154513
20492.0,27525.0,-0.030907464010483353
20502.0,27529.0,-0.021985107373583807
20511.0,27534.0,-0.012597235801724145
20521.0,27544.0,-0.002811011094775197
20531.0,27548.0,0.007304187053098551
20541.0,27556.0,0.017676932012069085
20551.0,27567.0,0.02823395513463503
20562.0,27560.0,0.03890038549170593
20572.0,27577.0,0.04960002566359227
20581.0,27584.0,0.060255665820217526
20591.0,27589.0,0.07078943807271472
20601.0,27591.0,0.08112321114254013
20611.0,27606.0,0.09117902451565103
20622.0,27621.0,0.10087956153089092
20632.0,27623.0,0.11014865896084096
20642.0,27633.0,0.1189118470788765
20651.0,27638.0,0.12709691302849016
20661.0,27650.0,0.13463448179630985
20671.0,27654.0,0.14145860994512133
20681.0,27657.0,0.14750738661253346
20692.0,27674.0,0.15272353584510698
20702.0,27661.0,0.15705501450932732
20712.0,27668.0,0.16045560053606883
20721.0,27686.0,0.16288546776449228
20731.0,27689.0,0.16431174411912083
20741.0,27696.0,0.16470904631435448
20751.0,27706.0,0.16405997969124178
20762.0,27712.0,0.16235559032573996
20772.0,27709.0,0.1595957569969446
20782.0,27715.0,0.15578951154882706
20791.0,27721.0,0.15095527824712388
20801.0,27735.0,0.1451210241056181
20811.0,27726.0,0.1383243106116608
20822.0,27732.0,0.1306122352324371
20832.0,27751.0,0.12204125184181096
20842.0,27735.0,0.11267686072708623
20852.0,27742.0,0.10259315870163127
20861.0,27739.0,0.0918722411396344
20871.0,27734.0,0.08060345191067127
20881.0,27708.0,0.06888248147212671
20892.0,27692.0,0.05681031878577533
20902.0,27676.0,0.044492071657662974
20912.0,27639.0,0.0320356793973445
20922.0,27623.0,0.01955054809176516
20931.0,27593.0,0.007146143564435188
20941.0,27579.0,-0.005069419459942258
20951.0,27554.0,-0.016990753228325862
20962.0,27535.0,-0.028516501487364298
20972.0,27538.0,-0.039550539321285466
20982.0,27527.0,-0.050003039546407925
20992.0,27527.0,-0.059791384756751886
21001.0,27526.0,-0.06884091303163231
21011.0,27537.0,-0.07708549209286486
21021.0,27534.0,-0.0844679221046734
21032.0,27545.0,-0.09094017268028903
21042.0,27561.0,-0.09646346401767017
21052.0,27565.0,-0.1010082057427606
21062.0,27577.0,-0.10455381098399436
21071.0,27591.0,-0.10708840589248807
21081.0,27605.0,-0.10860845559402932
21092.0,27604.0,-0.10911832817605872
21102.0,27616.0,-0.10862981817664953
21112.0,27633.0,-0.10716164849904938
21122.0,27631.0,-0.1047389670235184
21132.0,27634.0,-0.10139285326852239
21142.0,27645.0,-0.09715984833772838
21151.0,27646.0,-0.09208151708937017
21162.0,27645.0,-0.0862040482083547
21172.0,27638.0,-0.07957789561038402
21182.0,27643.0,-0.07225746041854639
21192.0,27647.0,-0.06430080782549813
21202.0,27631.0,-0.05576941093744439
21212.0,27635.0,-0.046727913078764755
21221.0,27640.0,-0.03724389786652989
21232.0,27647.0,-0.027387654738976606
21242.0,27640.0,-0.017231930031900024
21252.0,27645.0,-0.006851657179356394
21262.0,27657.0,0.0036763399841876696
21272.0,27666.0,0.014273677016714274
21282.0,27670.0,0.024860774861622928
21292.0,27672.0,0.03535726108302831
21301.0,27689.0,0.045682404390432925
21312.0,27687.0,0.05575558139762222
21322.0,27698.0,0.06549677422982862
21332.0,27702.0,0.0748270965902085
21342.0,27723.0,0.08366934543580795
21352.0,27722.0,0.09194857393053105
21362.0,27729.0,0.09959267863499603
21371.0,27731.0,0.10653299309789134
21382.0,27746.0,0.11270488205582842
21392.0,27733.0,0.1180483322003556
21402.0,27744.0,0.12250853583277216
21412.0,27753.0,0.12603646460508355
21422.0,27758.0,0.1285894308010728
21432.0,27757.0,0.13013163102828282
21442.0,27762.0,0.13063466454860703
21452.0,27767.0,0.13007801881757167
21462.0,27784.0,0.12844951560106596
21472.0,27775.0,0.12574570906100097
21482.0,27780.0,0.12197222435575886
21492.0,27791.0,0.11714402538501796
21502.0,27797.0,0.11128560200348804
21512.0,27798.0,0.10443106615570241
21523.0,27799.0,0.09662414407237958
21532.0,27810.0,0.08791805185788482
21542.0,27806.0,0.07837524365356953
21552.0,27822.0,0.06806702208707961
21562.0,27824.0,0.05707299982395142
21572.0,27812.0,0.045480400289348466
21582.0,27778.0,0.03338318815547804
21592.0,27759.0,0.02088103027605568
21602.0,27732.0,0.008078103863831086
21612.0,27706.0,-0.004918217561521428
21622.0,27675.0,-0.017998763329244535
21632.0,27652.0,-0.031054010203551072
21642.0,27632.0,-0.04397553118484459
21652.0,27607.0,-0.05665740772762086
21662.0,27596.0,-0.06899756757395326
21673.0,27585.0,-0.08089901477197803
21682.0,27588.0,-0.09227092425266784
21692.0,27577.0,-0.10302958142042945
21702.0,27579.0,-0.11309915586686081
21712.0,27576.0,-0.1224123045534555
21722.0,27590.0,-0.13091060367790858
21732.0,27591.0,-0.1385448127622394
21743.0,27602.0,-0.14527498026470675
21753.0,27614.0,-0.15107040522705473
21762.0,27616.0,-0.15590947278588693
21772.0,27617.0,-0.15977938285588045
21782.0,27631.0,-0.16267579040064922
21792.0,27643.0,-0.16460237359747037
21802.0,27649.0,-0.16557034635385867
21812.0,27656.0,-0.1655979340068848
21823.0,27664.0,-0.16470983168506304
21833.0,27671.0,-0.16293666267769588
21842.0,27679.0,-0.1603144517483128
21852.0,27663.0,-0.15688412637452243
21862.0,27672.0,-0.15269105510337388
21872.0,27674.0,-0.14778462606336226
21882.0,27672.0,-0.14221786409077702
21893.0,27651.0,-0.1360470837390766
21903.0,27664.0,-0.12933157324463204
21912.0,27665.0,-0.12213329991972972
21922.0,27661.0,-0.11451662607442581
21932.0,27658.0,-0.10654802767725197
21942.0,27666.0,-0.09829580973502801
21952.0,27664.0,-0.08982981141464051
21963.0,27665.0,-0.08122109404207829
21973.0,27670.0,-0.07254160656238735
21983.0,27673.0,-0.06386382383906491
21992.0,27680.0,-0.05526035398244179
22002.0,27686.0,-0.04680351277913848
22012.0,27692.0,-0.03856486558141632
22022.0,27703.0,-0.030614739010720798
22032.0,27706.0,-0.023021706564406372
22043.0,27713.0,-0.015852053600408506
22053.0,27715.0,-0.009169227595461868
22063.0,27722.0,-0.003033278854891754
22072.0,27727.0,0.002499703985590502
22082.0,27730.0,0.007378159288522843
22092.0,27740.0,0.011555613456082225
22102.0,27740.0,0.014991231688318883
22113.0,27751.0,0.017650351578615414
22123.0,27754.0,0.019504991790336
22133.0,27757.0,0.020534327275261877
22143.0,27760.0,0.020725122179100976
22152.0,27767.0,0.020072112127580796
22162.0,27769.0,0.018578328204636223
22172.0,27777.0,0.016255354538806437
22182.0,27779.0,0.013123510403303628
22193.0,27790.0,0.009211946899672037
22203.0,27792.0,0.004558647531370239
22213.0,27797.0,-0.0007896787731002961
22223.0,27811.0,-0.006777823881896594
22232.0,27813.0,-0.01334243770632605
22242.0,27814.0,-0.020412528735990428
22252.0,27795.0,-0.02791011896657743
22263.0,27792.0,-0.03575105843258619
22273.0,27777.0,-0.04384599506254166
22283.0,27756.0,-0.05210148706429369
22293.0,27727.0,-0.06042123882201637
22303.0,27700.0,-0.06870743428216851
22312.0,27682.0,-0.07686213333312296
22322.0,27647.0,-0.08478869043380428
22332.0,27625.0,-0.09239315253621173
22343.0,27610.0,-0.0995855930483607
22353.0,27599.0,-0.10628133986486818
22363.0,27601.0,-0.11240206097357673
22373.0,27593.0,-0.11787668088045447
22383.0,27609.0,-0.12264211181602125
22392.0,27614.0,-0.12664379332777145
22402.0,27623.0,-0.12983604266025378
22413.0,27629.0,-0.13218222567795246
22423.0,27649.0,-0.13365476242120775
22433.0,27657.0,-0.13423498378459986
22443.0,27663.0,-0.13391285845609469
22453.0,27677.0,-0.13268661098395415
22463.0,27681.0,-0.13056225095428636
22472.0,27710.0,-0.1275530317620765
22483.0,27706.0,-0.12367885804371472
22493.0,27725.0,-0.1189656626444903
22503.0,27737.0,-0.11344477409266178
22513.0,27748.0,-0.10715229387574925
22523.0,27750.0,-0.10012850148390764
22533.0,27767.0,-0.09241730356491121
22542.0,27759.0,-0.08406574017221276
22553.0,27759.0,-0.07512355666626552
22563.0,27761.0,-0.06564284436800386
22573.0,27768.0,-0.05567774714403768
22583.0,27763.0,-0.045284227844010455
22593.0,27756.0,-0.034519888062375444
22603.0,27756.0,-0.02344383296307328
22613.0,27761.0,-0.012116568985542964
22623.0,27750.0,-0.0005999199190443897
22633.0,27759.0,0.011043052634513766
22643.0,27766.0,0.02274813726284717
22653.0,27764.0,0.03445008040295776
22663.0,27770.0,0.0460827218964725
22672.0,27771.0,0.05757916465311544
22683.0,27777.0,0.06887198461546755
22693.0,27787.0,0.07989348700880074
22703.0,27782.0,0.09057601318196074
22713.0,27810.0,0.10085230010505646
22723.0,27807.0,0.11065589207135974
22733.0,27824.0,0.11992160062837966
22743.0,27836.0,0.1285860052086422
22753.0,27840.0,0.13658798489600266
22763.0,27854.0,0.1438692708569621
22773.0,27862.0,0.1503750086666592
22783.0,27868.0,0.15605431985284487
22793.0,27859.0,0.16086085242107953
22803.0,27860.0,0.16475331267000357
22813.0,27880.0,0.16769597535721295
22823.0,27864.0,0.16965917168363948
22833.0,27875.0,0.1706197525596237
22843.0,27878.0,0.17056152261282528
22853.0,27884.0,0.16947564037493493
22863.0,27887.0,0.167360978887812
22873.0,27894.0,0.16422443835291903
22883.0,27896.0,0.16008120083041943
22893.0,27886.0,0.15495491685742968
22903.0,27900.0,0.1488778152567685
22913.0,27901.0,0.14189072952410478
22923.0,27911.0,0.13404303393934905
22934.0,27917.0,0.12539247921197427
22943.0,27918.0,0.11600491426482852
22953.0,27919.0,0.10595388018756839
22963.0,27918.0,0.09532006448944146
22973.0,27912.0,0.08419060750613513
22983.0,27892.0,0.07265825737132647
22993.0,27867.0,0.060820376428293486
23004.0,27832.0,0.04877781204127413
23013.0,27814.0,0.03663365725201423
23023.0,27776.0,0.024491937284984167
23033.0,27760.0,0.012456263355734009
23043.0,27730.0,0.0006284963060331632
23053.0,27719.0,-0.010892538801768893
23064.0,27707.0,-0.02201224957267095
23073.0,27700.0,-0.032641353203110374
23083.0,27693.0,-0.04269680987068783
23093.0,27697.0,-0.05210259680700464
23103.0,27708.0,-0.060790314353274706
23114.0,27709.0,-0.06869962301807188
23123.0,27712.0,-0.07577851846729028
23133.0,27714.0,-0.08198345613609397
23143.0,27740.0,-0.08727933807785729
23154.0,27746.0,-0.091639376221324
23164.0,27752.0,-0.09504485109297399
23173.0,27760.0,-0.09748478906981964
23183.0,27751.0,-0.09895557974889768
23193.0,27777.0,-0.09946054983757004
23204.0,27774.0,-0.09900950618121233
23213.0,27790.0,-0.0976182607515619
23223.0,27798.0,-0.09530815264696635
23233.0,27798.0,-0.09210558296517836
23244.0,27803.0,-0.08804157671224176
23254.0,27804.0,-0.08315138211324474
23263.0,27804.0,-0.0774741129404683
23273.0,27794.0,-0.0710524351934296
23283.0,27806.0,-0.06393229547843413
23294.0,27802.0,-0.05616268504672144
23303.0,27799.0,-0.047795432405708445
23313.0,27806.0,-0.0388850178118696
23323.0,27805.0,-0.02948840249292632
23334.0,27810.0,-0.019664864957149017
23344.0,27805.0,-0.009475837272054024
23353.0,27818.0,0.0010152656201912666
23363.0,27808.0,0.01174323095113858
23374.0,27826.0,0.022641254895210034
23384.0,27841.0,0.03364117713658674
23393.0,27838.0,0.044673745935626404
23403.0,27851.0,0.05566891206510504
23413.0,27859.0,0.06655614837907452
23424.0,27864.0,0.07726479288262882
23434.0,27878.0,0.08772441352844874
23443.0,27884.0,0.09786519196809741
23453.0,27880.0,0.10761832268474118
23464.0,27897.0,0.11691642449399935
23474.0,27893.0,0.12569396324333373
23483.0,27907.0,0.13388768557666825
23493.0,27912.0,0.1414370627413651
23504.0,27914.0,0.1482847418629083
23514.0,27920.0,0.15437700119299147
23524.0,27920.0,0.15966420618683355
23533.0,27931.0,0.16410126432988334
23544.0,27936.0,0.1676480766448979
23554.0,27946.0,0.1702699819026747
23564.0,27938.0,0.17193818700934727
23573.0,27949.0,0.1726301762902138
23583.0,27949.0,0.17233009397714022
23594.0,27955.0,0.17102909551947254
23604.0,27968.0,0.1687256623207594
23613.0,27969.0,0.1654258718226837
23623.0,27976.0,0.161143612040909
23634.0,27973.0,0.15590072840317953
23644.0,27993.0,0.1497270916708438
23654.0,27995.0,0.1426605764050141
23663.0,28001.0,0.13474693762767553
23674.0,27988.0,0.12603957158536094
23684.0,27995.0,0.11659914909577866
23694.0,27984.0,0.1064931161088872
23703.0,27983.0,0.09579506135861175
23714.0,27959.0,0.08458395409939802
23724.0,27941.0,0.07294325905372515
23734.0,27917.0,0.0609599430324302
23743.0,27890.0,0.04872339650508386
23754.0,27875.0,0.03632430045808829
23764.0,27847.0,0.02385347250744142
23774.0,27828.0,0.01140072681118888
23783.0,27817.0,-0.0009462187030174531
23794.0,27813.0,-0.013102756811380307
23804.0,27803.0,-0.024988301885172454
23814.0,27793.0,-0.036527079868947376
23823.0,27791.0,-0.0476487861232732
23834.0,27799.0,-0.05828910315920847
23844.0,27792.0,-0.06839007413415077
23854.0,27806.0,-0.07790033388265596
23864.0,27813.0,-0.08677520498124083
23874.0,27813.0,-0.09497667088492083
23884.0,27814.0,-0.1024732414206036
23894.0,27831.0,-0.10923972645896551
23904.0,27828.0,-0.11525693262225438
23914.0,27853.0,-0.12051129881484594
23924.0,27849.0,-0.12499448913725775
23934.0,27867.0,-0.12870296390775973
23944.0,27875.0,-0.13163754996920415
23954.0,27878.0,-0.13380303068539529
23964.0,27879.0,-0.13520777435594733
23974.0,27879.0,-0.13586341613432903
23984.0,27881.0,-0.13578460290840358
23994.0,27877.0,-0.13498880536535618
24004.0,27859.0,-0.13349619745884692
24014.0,27868.0,-0.13132959880945586
24024.0,27857.0,-0.12851447029202995
24034.0,27856.0,-0.12507895035612704
24044.0,27842.0,-0.12105391963459748
24054.0,27855.0,-0.11647308084089761
24064.0,27854.0,-0.11137304023027093
24074.0,27861.0,-0.1057933793403714
24084.0,27854.0,-0.09977671029964277
24094.0,27862.0,-0.09336871021882358
24104.0,27866.0,-0.08661812927267275
24114.0,27860.0,-0.07957676623083189
24124.0,27869.0,-0.07229940552950792
24134.0,27879.0,-0.0648437101874964
24144.0,27891.0,-0.0572700661205476
24154.0,27890.0,-0.04964137730546706
24164.0,27906.0,-0.04202281508001007
24174.0,27901.0,-0.03448152561387512
24184.0,27911.0,-0.02708629828370103
24194.0,27905.0,-0.019907195986531647
24204.0,27916.0,-0.013015146495336511
24214.0,27912.0,-0.00648149249295408
24224.0,27925.0,-0.0003774979222816998
24235.0,27926.0,0.005226190261298576
24244.0,27929.0,0.010260123713765138
24254.0,27943.0,0.014656674641480096
24264.0,27946.0,0.01835069351503489
24275.0,27950.0,0.021280196019635638
24284.0,27964.0,0.023387070712577476
24294.0,27953.0,0.024617798099523
24304.0,27971.0,0.02492417213079677
24315.0,27973.0,0.02426401563672808
24324.0,27980.0,0.022601880639476695
24334.0,27975.0,0.019909722590673334
24344.0,27989.0,0.01616753687285076
24355.0,27993.0,0.011363946791111563
24364.0,28003.0,0.00549673163334588
24374.0,28003.0,-0.0014267193960738483
24384.0,28026.0,-0.00938904377464126
24395.0,28010.0,-0.01836265006668102
24404.0,28033.0,-0.028309587593334407
24414.0,28030.0,-0.039181557876783665
24424.0,28038.0,-0.050920083053664154
24435.0,28032.0,-0.06345684578510881
24444.0,28024.0,-0.07671421308815994
24454.0,28011.0,-0.09060595097881356
24464.0,27980.0,-0.10503812853922609
24475.0,27955.0,-0.1199101998114499
24485.0,27923.0,-0.13511624034172157
24494.0,27897.0,-0.15054630461581742
24504.0,27871.0,-0.1660878639956904
24515.0,27851.0,-0.18162728281924878
24525.0,27820.0,-0.19705129164782387
24534.0,27805.0,-0.21224841907717246
24544.0,27782.0,-0.2271103456453115
24554.0,27780.0,-0.24153314609667687
24565.0,27763.0,-0.2554183914087913
24574.0,27767.0,-0.2686740892960972
24584.0,27765.0,-0.28121544962767114
24594.0,27772.0,-0.2929654687143654
24605.0,27782.0,-0.3038553341117287
24614.0,27787.0,-0.3138246590263548
24624.0,27793.0,-0.3228215613180678
24634.0,27808.0,-0.33080260545125856
24645.0,27816.0,-0.3377326273184553
24654.0,27823.0,-0.34358446341974086
24664.0,27838.0,-0.34833860723639715
24674.0,27844.0,-0.351982815674122
24685.0,27856.0,-0.35451168783029274
24694.0,27858.0,-0.35592623753312486
24704.0,27871.0,-0.356233479254342
24715.0,27865.0,-0.35544604403774455
24725.0,27872.0,-0.3535818384804157
24734.0,27859.0,-0.3506637551787978
24744.0,27868.0,-0.3467194373583605
24755.0,27854.0,-0.3417810950012712
24765.0,27855.0,-0.33588536585768575
24774.0,27850.0,-0.329073211829454
24784.0,27851.0,-0.32138983892115575
24795.0,27851.0,-0.3128846281063371
24805.0,27849.0,-0.30361106518780456
24814.0,27851.0,-0.29362665868543414
24824.0,27854.0,-0.2829928351617312
24835.0,27865.0,-0.27177480203875026
24845.0,27857.0,-0.26004136983277354
24854.0,27878.0,-0.24786472792976202
24864.0,27877.0,-0.23532016941952924
24875.0,27898.0,-0.22248576227319583
24885.0,27899.0,-0.2094419672395508
24894.0,27912.0,-0.1962712056351167
24905.0,27920.0,-0.1830573811443214
24915.0,27939.0,-0.1698853596692958
24925.0,27945.0,-0.15684041220338746
24934.0,27956.0,-0.14400762778716547
24945.0,27964.0,-0.13147130462823947
24955.0,27963.0,-0.11931432623660952
24964.0,27977.0,-0.10761752694651945
24974.0,27979.0,-0.09645904898239026
24985.0,27989.0,-0.08591369257861364
24995.0,28000.0,-0.07605226173019766
25004.0,28009.0,-0.06694091002913426
25015.0,28003.0,-0.058640492889706616
25025.0,28023.0,-0.051205932889429824
25035.0,28017.0,-0.04468560362939903
25044.0,28036.0,-0.03912073686801237
25055.0,28040.0,-0.03454485912896474
25065.0,28055.0,-0.03098326651949536
25074.0,28053.0,-0.028452549026293374
25085.0,28066.0,-0.02696017677459468
25095.0,28066.0,-0.026504159897418188
25105.0,28067.0,-0.027072791946996525
25114.0,28083.0,-0.02864448532887723
25125.0,28079.0,-0.03118770660857893
25135.0,28092.0,-0.03466102030467776
25145.0,28095.0,-0.03901325102963888
25154.0,28117.0,-0.044183774678696816
25165.0,28099.0,-0.05010295062168061
25175.0,28114.0,-0.056692707292675816
25184.0,28096.0,-0.0638672901902486
25195.0,28074.0,-0.07153417433257904
25205.0,28051.0,-0.07959513393994005
25215.0,28034.0,-0.08794745064034977
25224.0,28003.0,-0.0964852309482617
25235.0,27975.0,-0.10510079756843067
25245.0,27961.0,-0.11368611563799691
25255.0,27932.0,-0.1221342128709747
25265.0,27927.0,-0.1303405534405817
25275.0,27901.0,-0.138204329342083
25285.0,27904.0,-0.14562963786197466
25294.0,27898.0,-0.15252651918756568
25305.0,27897.0,-0.15881183511788538
25315.0,27899.0,-0.1644099778405507
25325.0,27901.0,-0.1692534046328395
25335.0,27912.0,-0.1732829994004424
25345.0,27908.0,-0.17644826637925234
25355.0,27925.0,-0.17870736521021435
25365.0,27937.0,-0.1800269995452362
25375.0,27956.0,-0.18038217488211175
25385.0,27964.0,-0.1797558464986619
25395.0,27990.0,-0.17813848297742993
25405.0,28002.0,-0.17552757311309475
25415.0,28016.0,-0.17192710504855668
25425.0,28021.0,-0.16734704633889366
25435.0,28028.0,-0.16180285044597778
25445.0,28027.0,-0.1553150090280174
25455.0,28025.0,-0.14790866234678973
25465.0,28039.0,-0.1396132736626275
25475.0,28023.0,-0.1304623688434719
25485.0,28032.0,-0.12049333969683586
25495.0,28018.0,-0.10974730657414344
25505.0,28022.0,-0.09826903158725205
25515.0,28015.0,-0.08610687006991274
25525.0,28007.0,-0.07331274573730326
25535.0,28015.0,-0.059942133618893834
25546.0,28010.0,-0.04605403425464084
25555.0,28029.0,-0.031710924210613146
25565.0,28022.0,-0.01697867198972386
25575.0,28030.0,-0.0019264126333918426
25585.0,28034.0,0.013373623909613637
25595.0,28044.0,0.028846335880847
25605.0,28057.0,0.04441402886423042
25616.0,28053.0,0.05999675279853939
25625.0,28070.0,0.07551269617231444
25635.0,28075.0,0.09087863629245713
25645.0,28093.0,0.10601044418694208
25655.0,28099.0,0.12082364032416461
25665.0,28107.0,0.13523399427629534
25675.0,28106.0,0.14915816052138883
25686.0,28114.0,0.16251434459583705
25695.0,28131.0,0.1752229966326521
25705.0,28137.0,0.18720752930737403
25715.0,28145.0,0.19839505359075732
25725.0,28143.0,0.2087171224420759
25735.0,28159.0,0.2181104729814457
25745.0,28161.0,0.22651775967871904
25756.0,28165.0,0.2338882711779622
25765.0,28166.0,0.24017862226764114
25775.0,28168.0,0.24535341297275515
25785.0,28185.0,0.249385848209345
25795.0,28185.0,0.25225831078612965
25805.0,28200.0,0.2539628770288478
25815.0,28189.0,0.2545017609242227
25826.0,28196.0,0.25388767260893386
25835.0,28202.0,0.2521440800103486
25845.0,28203.0,0.24930536494204458
25856.0,28210.0,0.24541686447267558
25865.0,28218.0,0.24053478638567746
25875.0,28230.0,0.2347259857737988
25885.0,28220.0,0.22806758803115215
25896.0,28218.0,0.2206464433387208
25905.0,28204.0,0.21255840219344882
25915.0,28178.0,0.20390741012056496
25926.0,28171.0,0.19480442952145163
25936.0,28139.0,0.18536620551692792
25945.0,28107.0,0.17571389958872088
25955.0,28080.0,0.16597162107294805
25966.0,28054.0,0.1562648934925216
25975.0,28025.0,0.146719097692092
25985.0,28003.0,0.13745793442629514
25996.0,27985.0,0.12860194713351897
26006.0,27963.0,0.12026714254334142
26015.0,27968.0,0.11256374205920021
26025.0,27954.0,0.10559509001201504
26036.0,27972.0,0.09945673573408373
26045.0,27958.0,0.09423569616455608
26055.0,27972.0,0.09000989708120513
26066.0,27972.0,0.08684778579019019
26076.0,27980.0,0.08480810517079103
26085.0,28005.0,0.08393981594365757
26095.0,27999.0,0.08428214966968998
26106.0,28030.0,0.08586477033291119
26115.0,28032.0,0.08870801939922963
26125.0,28054.0,0.09282321803801269
26136.0,28048.0,0.09821299992539553
26146.0,28065.0,0.10487164998844595
26155.0,28068.0,0.1127854290534915
26165.0,28061.0,0.12193286928841374
26176.0,28078.0,0.13228502963272007
26185.0,28075.0,0.14380570464791553
26195.0,28075.0,0.15645158324010758
26206.0,28063.0,0.17017235595658645
26216.0,28068.0,0.18491077417274115
26225.0,28053.0,0.20060267095969392
26236.0,28050.0,0.21717695831522527
26246.0,28065.0,0.23455561792904053
26256.0,28055.0,0.25265370249305386
26265.0,28061.0,0.2713793613683575
26276.0,28053.0,0.2906339015594012
26286.0,28061.0,0.31031189553016675
26295.0,28058.0,0.3303013490990444
26306.0,28065.0,0.350483942406576
26316.0,28072.0,0.37073535495085597
26326.0,28073.0,0.39092568300123237
26335.0,28083.0,0.4109199549761358
26346.0,28092.0,0.43057874812928615
26356.0,28102.0,0.44975890758843556
26365.0,28105.0,0.4683143657466172
26376.0,28104.0,0.48609705771011946
26386.0,28108.0,0.5029579289769117
26396.0,28111.0,0.5187480338514742
26405.0,28124.0,0.5333197240382906
26416.0,28128.0,0.546527924357911
26426.0,28146.0,0.5582314875091944
26435.0,28138.0,0.5682946146918986
26446.0,28147.0,0.5765883260195276
26456.0,28158.0,0.5829919646965248
26466.0,28152.0,0.5873947194968002
26475.0,28166.0,0.5896971487735483
26486.0,28150.0,0.5898126875670947
26496.0,28171.0,0.5876691193111826
26506.0,28159.0,0.5832099938526222
26516.0,28162.0,0.5763959723400954
26526.0,28167.0,0.5672060780184545
26536.0,28163.0,0.5556388312000846
26545.0,28158.0,0.5417132458309514
26556.0,28158.0,0.5254696644664032
26566.0,28159.0,0.5069704091359293
26576.0,28166.0,0.48630022556942304
26585.0,28179.0,0.46356649531268934
26596.0,28179.0,0.43889918510506387
26606.0,28201.0,0.41245049796546374
26616.0,28186.0,0.38439418778656587
26625.0,28162.0,0.3549245008051183
26636.0,28125.0,0.32425471663634065
26646.0,28081.0,0.29261528016731736
26656.0,28036.0,0.2602515381693219
26666.0,27981.0,0.22742111383635788
26676.0,27913.0,0.1943909668901069
26686.0,27867.0,0.1614341988563881
26695.0,27817.0,0.12882667288607352
26706.0,27754.0,0.0968435219503725
26716.0,27698.0,0.06575561893520183
26726.0,27639.0,0.035826082648432137
26736.0,27600.0,0.0073068963116303
26746.0,27543.0,-0.019564284973269737
26756.0,27527.0,-0.04456706648181978
26766.0,27515.0,-0.06750092413931677
26776.0,27517.0,-0.08818744622538352
26786.0,27514.0,-0.1064721806229645
26796.0,27514.0,-0.12222608203109367
26806.0,27520.0,-0.13534656712441684
26816.0,27528.0,-0.14575819270679383
26826.0,27533.0,-0.15341297661237935
26836.0,27531.0,-0.15829038508630533
26846.0,27550.0,-0.1603970122029246
26856.0,27562.0,-0.15976597712432153
26866.0,27574.0,-0.15645606700067727
26876.0,27593.0,-0.15055065736985568
26886.0,27594.0,-0.14215644459394877
26897.0,27606.0,-0.13140202412900814
26906.0,27621.0,-0.11843634496969956
26916.0,27621.0,-0.10342706671883159
26926.0,27618.0,-0.08655884266717986
26936.0,27626.0,-0.06803154790970734
26946.0,27623.0,-0.048058465036383106
26956.0,27626.0,-0.02686443465186945
26966.0,27629.0,-0.004683975505314195
26976.0,27628.0,0.01824062232781978
26986.0,27640.0,0.04166122867611258
26996.0,27637.0,0.06532582630406177
27006.0,27651.0,0.0889804821206274
27016.0,27671.0,0.11237133115896951
27026.0,27670.0,0.1352465646641211
27036.0,27698.0,0.15735840918422453
27047.0,27686.0,0.17846508053462176
27056.0,27706.0,0.19833269656295358
27066.0,27705.0,0.21673713487459753
27076.0,27707.0,0.23346582418542955
27086.0,27711.0,0.24831945970082006
27097.0,27713.0,0.2611136343524331
27106.0,27718.0,0.2716803786635141
27116.0,27699.0,0.2798696019091787
27126.0,27706.0,0.2855504279883638
27137.0,27703.0,0.28861242205141285
27147.0,27707.0,0.2889667049522879
27156.0,27719.0,0.28654694906038486
27166.0,27707.0,0.2813102429053273
27176.0,27714.0,0.2732378075487934
27187.0,27706.0,0.2623355466204943
27196.0,27703.0,0.24863441347227747
27206.0,27701.0,0.23219058032557083
27216.0,27679.0,0.21308539514386746
27226.0,27675.0,0.19142511374430293
27237.0,27651.0,0.16734039820198407
27246.0,27652.0,0.14098557646986493
27256.0,27627.0,0.11253765998840667
27266.0,27625.0,0.08219511571102453
27277.0,27609.0,0.050176388118714416
27287.0,27594.0,0.01671816634368519
27296.0,27581.0,-0.017926608260946105
27306.0,27541.0,-0.05349099672345726
27316.0,27506.0,-0.08969657615952055
27327.0,27474.0,-0.12625619939641705
27337.0,27418.0,-0.1628769753162526
27346.0,27368.0,-0.19926343415913916
27356.0,27296.0,-0.23512083179935905
27366.0,27244.0,-0.27015853485642205
27377.0,27188.0,-0.304093417091984
27387.0,27140.0,-0.3366531918252684
27396.0,27100.0,-0.36757960660163796
27406.0,27060.0,-0.39663143262957745
27417.0,27031.0,-0.42358718969353265
27427.0,27014.0,-0.44824755628279
27436.0,26989.0,-0.47043742542916395
27446.0,26993.0,-0.490007580978274
27456.0,26971.0,-0.5068359859044013
27467.0,26965.0,-0.5208286890615293
27477.0,26952.0,-0.5319203653358446
27486.0,26949.0,-0.5400745070619141
27496.0,26952.0,-0.5452832848577925
27506.0,26958.0,-0.5475670956858372
27517.0,26971.0,-0.5469738154044473
27527.0,26977.0,-0.5435777723807771
27536.0,26992.0,-0.5374784579255912
27546.0,27002.0,-0.5287989884286569
27557.0,27014.0,-0.5176843331554651
27567.0,27045.0,-0.504299321499199
27577.0,27060.0,-0.48882644669963454
27586.0,27091.0,-0.471463491471576
27596.0,27106.0,-0.4524210111972623
27607.0,27127.0,-0.43191971646645383
27617.0,27134.0,-0.4101877967769705
27626.0,27145.0,-0.3874582226946041
27636.0,27164.0,-0.36396605717910413
27647.0,27174.0,-0.3399458013163824
27657.0,27188.0,-0.31562879743695793
27667.0,27195.0,-0.2912407119526722
27676.0,27206.0,-0.26699911841364754
27687.0,27206.0,-0.2431111979253318
27697.0,27248.0,-0.2197715709311941
27707.0,27252.0,-0.1971602744696073
27716.0,27274.0,-0.1754409036420795
27727.0,27298.0,-0.15475894095304576
27737.0,27315.0,-0.13524029850026562
