timestamp_ms,ir_value,ir_filtered
6940.0,26166.0,0.036498596279892326
6950.0,26149.0,0.035879551252069465
6960.0,26165.0,0.03503192882239392
6970.0,26170.0,0.033960749913893425
6980.0,26168.0,0.03268612471325263
6990.0,26175.0,0.031248226068377436
7000.0,26150.0,0.029710675040185763
7010.0,26165.0,0.028160966483913183
7020.0,26166.0,0.026708879573381618
7030.0,26166.0,0.0254843296100509
7040.0,26171.0,0.02463449005817082
7050.0,26157.0,0.024318646213683737
7060.0,26160.0,0.024699809563665118
7070.0,26159.0,0.025933817617203925
7079.0,26160.0,0.02815776270966778
7090.0,26164.0,0.03147928125915236
7100.0,26159.0,0.03596718628417678
7110.0,26171.0,0.04164323186264325
7120.0,26163.0,0.04847455928591922
7130.0,26158.0,0.05636636703332982
7140.0,26167.0,0.06515493226312451
7150.0,26162.0,0.07460209154470068
7160.0,26164.0,0.08439251443090924
7170.0,26160.0,0.09413461013029932
7180.0,26160.0,0.10336584908320344
7190.0,26166.0,0.11156361924538247
7200.0,26165.0,0.11816249365938811
7210.0,26165.0,0.12257779436703542
7220.0,26157.0,0.12423453214512181
7230.0,26170.0,0.12260088971989867
7240.0,26172.0,0.11722553013581075
7251.0,26170.0,0.10777688828799521
7260.0,26175.0,0.09408093202698835
7270.0,26169.0,0.07615332065818586
7280.0,26173.0,0.05422246957192
7290.0,26175.0,0.028740664563372906
7300.0,26172.0,0.00038054081164815067
7310.0,26167.0,-0.02998574745762547
7320.0,26142.0,-0.06132646495853462
7330.0,26128.0,-0.09250839021027134
7340.0,26121.0,-0.12236800329563248
7351.0,26106.0,-0.14978752679230464
7360.0,26106.0,-0.17376710821703772
7370.0,26101.0,-0.19348599864256516
7380.0,26098.0,-0.20834773167890755
7390.0,26099.0,-0.21800639729270105
7400.0,26105.0,-0.2223728926757724
7410.0,26117.0,-0.22160179643761638
7421.0,26119.0,-0.21606176617139644
7430.0,26124.0,-0.20629452694343922
7440.0,26125.0,-0.19296829137502539
7450.0,26128.0,-0.17683058327828832
7460.0,26132.0,-0.15866397921245498
7470.0,26124.0,-0.1392470874197114
7480.0,26136.0,-0.11932205284218034
7490.0,26124.0,-0.09956882543723315
7500.0,26134.0,-0.08058562887290473
7510.0,26141.0,-0.06287475469327777
7521.0,26128.0,-0.0468330706593928
7530.0,26143.0,-0.03274709222596268
7540.0,26132.0,-0.02079232624851242
7550.0,26141.0,-0.011036079653182207
7560.0,26148.0,-0.003442943009496795
7570.0,26142.0,0.0021171466297989746
7580.0,26147.0,0.005857564199113349
7591.0,26136.0,0.00805969672195563
7600.0,26138.0,0.00905413259274383
7610.0,26138.0,0.0092001031813112
7621.0,26139.0,0.008865378551145523
7630.0,26141.0,0.008408147118368896
7640.0,26134.0,0.008161380978067645
7650.0,26132.0,0.0084198544235571
7661.0,26144.0,0.00943044931092137
7670.0,26146.0,0.011386408204221782
7680.0,26140.0,0.014424908879896715
7691.0,26135.0,0.01862619502458633
7700.0,26147.0,0.0240132469626111
7710.0,26146.0,0.0305523173511377
7721.0,26139.0,0.03815450450703901
7730.0,26153.0,0.04667772867433133
7740.0,26144.0,0.0559285409967905
7750.0,26147.0,0.06566357886225709
7761.0,26145.0,0.07559071277060077
7770.0,26146.0,0.08537047567844476
7780.0,26155.0,0.09461878905224731
7791.0,26134.0,0.10291172240390295
7800.0,26147.0,0.10979286844691355
7810.0,26144.0,0.1147845658911575
7820.0,26145.0,0.11740448089388465
7830.0,26156.0,0.11718792237074395
7840.0,26145.0,0.11371462934577892
7850.0,26150.0,0.10663783964573847
7861.0,26142.0,0.0957135718670331
7870.0,26145.0,0.08082883624363095
7880.0,26151.0,0.062027891021265026
7891.0,26150.0,0.0395349491709889
7900.0,26156.0,0.01377028532668361
7910.0,26142.0,-0.014644334882967019
7920.0,26149.0,-0.04489460371738752
7931.0,26134.0,-0.07599911740343473
7940.0,26128.0,-0.10685159427295114
7950.0,26119.0,-0.136278379059443
7961.0,26093.0,-0.16310778629760447
7970.0,26081.0,-0.18624547761179425
7980.0,26087.0,-0.20474768569282079
7991.0,26076.0,-0.21788335364557065
8000.0,26085.0,-0.22517843950313932
8010.0,26078.0,-0.22643913831743917
8020.0,26091.0,-0.2217533495927979
8031.0,26101.0,-0.211471457149795
8040.0,26107.0,-0.19616947543439342
8050.0,26120.0,-0.17659977145629555
8061.0,26115.0,-0.1536357888235742
8070.0,26129.0,-0.1282168269854497
8080.0,26126.0,-0.10129749382576189
8091.0,26120.0,-0.0738048132210843
8101.0,26130.0,-0.0466042486379168
8110.0,26127.0,-0.02047415101283582
8120.0,26122.0,0.003912864990073134
8131.0,26138.0,0.026003271829566625
8140.0,26137.0,0.045372175318606184
8150.0,26145.0,0.061729614635601844
8161.0,26142.0,0.07492280557610487
8170.0,26143.0,0.08493311387915478
8180.0,26147.0,0.0918673412028496
8190.0,26137.0,0.09594384498850844
8201.0,26150.0,0.09747453561670967
8210.0,26137.0,0.09684398592772935
8220.0,26145.0,0.09448681672905485
8231.0,26134.0,0.09086443140661
8240.0,26140.0,0.08644236815156027
8250.0,26143.0,0.0816696705081023
8261.0,26132.0,0.07696120823167218
8271.0,26138.0,0.0726832388525342
8280.0,26135.0,0.06914250631578198
8290.0,26140.0,0.06657940221909531
8301.0,26141.0,0.06516521875332641
8310.0,26134.0,0.06500265966917772
8320.0,26139.0,0.06612859122583116
8331.0,26138.0,0.06851860291250203
8340.0,26137.0,0.07209341540290866
8350.0,26145.0,0.07672701105653601
8361.0,26138.0,0.0822559474471896
8371.0,26148.0,0.08848902551977522
8380.0,26150.0,0.09521632888206923
8390.0,26145.0,0.1022164757453699
8401.0,26156.0,0.10926084060421282
8410.0,26135.0,0.11611397283574985
8420.0,26146.0,0.12253061167452653
8431.0,26137.0,0.1282511549202406
8440.0,26148.0,0.13299822936534778
8450.0,26147.0,0.13647633518450294
8461.0,26136.0,0.1383750714484991
8471.0,26147.0,0.13837577476490148
8480.0,26132.0,0.13616189957038183
8490.0,26138.0,0.1314340536393225
8501.0,26150.0,0.12393042986531333
8510.0,26141.0,0.11345220903357102
8520.0,26157.0,0.09989155483629225
8531.0,26142.0,0.08325830967921774
8541.0,26138.0,0.06370153545963878
8550.0,26148.0,0.04152340479625021
8561.0,26140.0,0.017184311859057215
8571.0,26150.0,-0.008701954870662738
8580.0,26128.0,-0.03538498706381097
8590.0,26129.0,-0.06200811517044806
8601.0,26119.0,-0.08765186280692411
8610.0,26107.0,-0.11138761554226054
8620.0,26096.0,-0.13233709643998373
8631.0,26080.0,-0.14973208139260905
8641.0,26086.0,-0.16296760207144864
8650.0,26087.0,-0.17164182954510535
8661.0,26092.0,-0.1755780339654567
8671.0,26104.0,-0.17482768966192874
8680.0,26092.0,-0.1696569763363103
8690.0,26097.0,-0.1605202205797032
8701.0,26117.0,-0.1480232865354101
8711.0,26114.0,-0.1328794762908582
8720.0,26122.0,-0.11586165978046958
8731.0,26115.0,-0.09775543441192233
8741.0,26127.0,-0.07931712332626097
8750.0,26128.0,-0.06123855839699926
8761.0,26123.0,-0.0441197408107782
8771.0,26125.0,-0.028450177393570725
8780.0,26128.0,-0.01459876311476975
8790.0,26133.0,-0.0028111008646150527
8801.0,26125.0,0.006786786335904072
8811.0,26118.0,0.014179102779219232
8820.0,26135.0,0.0194467922482918
8831.0,26131.0,0.022752153437454094
8841.0,26130.0,0.02432282710916443
8850.0,26131.0,0.024434902480969772
8860.0,26127.0,0.023394861833646544
8871.0,26129.0,0.021521030855423996
8880.0,26120.0,0.019125771872275207
8890.0,26129.0,0.016499835952632543
8901.0,26124.0,0.01390023789401722
8911.0,26128.0,0.011542442441286441
8920.0,26131.0,0.009596739399531254
8931.0,26121.0,0.008188049718737074
8941.0,26126.0,0.00739842155957272
8950.0,26129.0,0.0072720327484204145
8960.0,26132.0,0.007822714174957224
8971.0,26140.0,0.009043110822085606
8981.0,26124.0,0.010913433547012718
8990.0,26133.0,0.013407817875431782
9001.0,26128.0,0.01649774849156332
9011.0,26129.0,0.020153353017196913
9020.0,26139.0,0.024343469070238075
9031.0,26124.0,0.029034712307089313
9041.0,26136.0,0.034189366442308126
9050.0,26131.0,0.03976221656997643
9060.0,26133.0,0.04569688702011821
9071.0,26139.0,0.05192214581902198
9081.0,26134.0,0.058348244428404146
9090.0,26135.0,0.06486317187322588
9101.0,26129.0,0.07132901679918323
9111.0,26139.0,0.07757940235633896
9120.0,26143.0,0.08341923994381019
9131.0,26137.0,0.08862710091292891
9141.0,26142.0,0.09295933127636076
9151.0,26132.0,0.09615509423030558
9160.0,26142.0,0.0979425508880076
9171.0,26140.0,0.09804697189930352
9181.0,26132.0,0.09620117032925773
9190.0,26142.0,0.09215807030028948
9201.0,26127.0,0.08570524335337791
9211.0,26136.0,0.07668149773646664
9220.0,26140.0,0.06499547687806843
9231.0,26134.0,0.050645436937974346
9241.0,26145.0,0.03373810391780692
9251.0,26140.0,0.014503574140422195
9260.0,26134.0,-0.006696944096963495
9271.0,26135.0,-0.029373177377273726
9281.0,26130.0,-0.05291898170390231
9290.0,26123.0,-0.07663676199719537
9301.0,26111.0,-0.09977227278238211
9311.0,26109.0,-0.1215577277359561
9321.0,26096.0,-0.1412596276687633
9330.0,26086.0,-0.1582267085945604
9341.0,26091.0,-0.17193299597761458
9351.0,26081.0,-0.18201110781483612
9360.0,26095.0,-0.18827218434269036
9371.0,26089.0,-0.19071097362381637
9381.0,26096.0,-0.18949673991550867
9390.0,26106.0,-0.18495216243708482
9401.0,26099.0,-0.17752329970832037
9411.0,26106.0,-0.16774412922877352
9421.0,26105.0,-0.1561988105655597
9430.0,26109.0,-0.14348386077019457
9441.0,26125.0,-0.13017195269711135
9451.0,26117.0,-0.11677957763000843
9460.0,26116.0,-0.1037414925168092
9471.0,26111.0,-0.09139412516189215
9481.0,26119.0,-0.07996783563727304
9491.0,26120.0,-0.06958625758046882
9501.0,26116.0,-0.06027119479951216
9511.0,26126.0,-0.051952476080578444
9521.0,26113.0,-0.04448236891431029
9530.0,26121.0,-0.03765371442539083
9541.0,26124.0,-0.031220423277535433
9551.0,26120.0,-0.02491889219242976
9560.0,26122.0,-0.018489395498409764
9571.0,26112.0,-0.011696659872630858
9581.0,26126.0,-0.004348142823889932
9591.0,26124.0,0.0036918733202358197
9601.0,26127.0,0.012493384090631422
9611.0,26126.0,0.022056630642400606
9621.0,26123.0,0.03231225364874775
9630.0,26136.0,0.04312555699656398
9641.0,26132.0,0.05430503391289729
9651.0,26129.0,0.06561467287288404
9661.0,26147.0,0.07678903289101596
9671.0,26133.0,0.08755009189799665
9681.0,26150.0,0.09762468853537716
9691.0,26143.0,0.10676102203048718
9700.0,26140.0,0.11474278915535698
9711.0,26148.0,0.12140016999594909
9721.0,26141.0,0.12661768677308108
9730.0,26149.0,0.13033933537645526
9741.0,26142.0,0.13257117081335562
9751.0,26147.0,0.13338133918237077
9761.0,26153.0,0.1328975522941211
9771.0,26146.0,0.13130173305843432
9781.0,26152.0,0.1288210920800351
9791.0,26141.0,0.12571498959452446
9800.0,26143.0,0.12225784649241843
9811.0,26147.0,0.11871940090851343
9821.0,26138.0,0.11534394787112966
9831.0,26142.0,0.112329847383391
9841.0,26130.0,0.10981044677793457
9851.0,26126.0,0.10783819471881942
9861.0,26145.0,0.10637448635239008
9871.0,26135.0,0.10528733171433347
9881.0,26136.0,0.10435695613338752
9891.0,26131.0,0.10328792248939062
9900.0,26139.0,0.1017268087245528
9911.0,26142.0,0.0992851937209474
9921.0,26131.0,0.09556702468032008
9931.0,26137.0,0.09019854244013437
9941.0,26132.0,0.08285926387802137
9951.0,26139.0,0.07331319791172553
9961.0,26148.0,0.0614390406566146
9971.0,26149.0,0.047256538100403325
9981.0,26146.0,0.030944614460724943
9991.0,26127.0,0.01284680127992061
10001.0,26136.0,-0.006538195670408228
10011.0,26133.0,-0.026579884187945862
10021.0,26125.0,-0.04655120511527805
10031.0,26118.0,-0.06567397276421975
10041.0,26097.0,-0.08317256831665368
10051.0,26091.0,-0.09833167586175023
10061.0,26092.0,-0.11055137222997222
10072.0,26089.0,-0.1193923475517159
10081.0,26090.0,-0.12460601907868028
10091.0,26085.0,-0.12614710252617092
10101.0,26105.0,-0.12416811170958537
10111.0,26109.0,-0.1189968520360746
10121.0,26119.0,-0.11110043106009318
10131.0,26123.0,-0.10104176549004797
10141.0,26109.0,-0.08943512413401367
10151.0,26127.0,-0.07690548478268101
10161.0,26115.0,-0.06405389058609384
10171.0,26118.0,-0.051429370902166385
10181.0,26128.0,-0.039507495602300484
10191.0,26117.0,-0.028675469651595654
10201.0,26123.0,-0.019223666113876825
10211.0,26121.0,-0.011343294526767371
10221.0,26118.0,-0.005129284294065893
10231.0,26130.0,-0.0005871239576116233
10241.0,26118.0,0.0023572839528512163
10251.0,26123.0,0.003845202734330011
10261.0,26123.0,0.004070525149875236
10271.0,26121.0,0.003263951956598581
10281.0,26126.0,0.0016767182721289468
10291.0,26117.0,-0.0004356717788077586
10301.0,26122.0,-0.002829329837361381
10311.0,26106.0,-0.005286682923395838
10321.0,26119.0,-0.0076284486953983
10331.0,26126.0,-0.009721088100957922
10342.0,26112.0,-0.011479069711848255
10351.0,26118.0,-0.012862923063112356
10361.0,26115.0,-0.013874178681436446
10371.0,26123.0,-0.014547321385704927
10381.0,26128.0,-0.014939016332282526
10391.0,26123.0,-0.015116240195513013
10401.0,26122.0,-0.015145821358289893
10411.0,26108.0,-0.015087086052417617
10421.0,26126.0,-0.014987328982568075
10431.0,26125.0,-0.014878657628593547
10442.0,26119.0,-0.014775725531705008
10451.0,26121.0,-0.014675429440826913
10461.0,26110.0,-0.01455942387906648
10471.0,26121.0,-0.014398709054797749
10481.0,26116.0,-0.014158672280714497
10491.0,26120.0,-0.01380351527510536
10501.0,26125.0,-0.0133001061513835
10512.0,26108.0,-0.012621932658651453
10521.0,26113.0,-0.011753440339054079
10531.0,26127.0,-0.01069387418988655
10542.0,26116.0,-0.009459448441555884
10551.0,26121.0,-0.008084035182603928
10561.0,26114.0,-0.006619520758395825
10571.0,26119.0,-0.0051361806448934
10581.0,26118.0,-0.0037224239734878722
10591.0,26113.0,-0.0024832556488417075
10601.0,26117.0,-0.0015371190386445446
10612.0,26118.0,-0.0010107969829008323
10621.0,26120.0,-0.0010322259121376498
10631.0,26113.0,-0.0017216944955921222
10641.0,26118.0,-0.00318219655980671
10651.0,26124.0,-0.005489414338008781
10661.0,26116.0,-0.008681877453777343
10671.0,26126.0,-0.012752522205081256
10682.0,26106.0,-0.017643074644763997
10691.0,26116.0,-0.023241810722311552
10701.0,26131.0,-0.0293841982927367
10712.0,26113.0,-0.035856266920827565
10721.0,26122.0,-0.0424020819444662
10731.0,26112.0,-0.048736978594370386
10741.0,26100.0,-0.05456648744085358
10751.0,26102.0,-0.05960879301964607
10761.0,26098.0,-0.06361714177093376
10771.0,26104.0,-0.06639843698332265
10782.0,26098.0,-0.067825598082424
10791.0,26103.0,-0.06784295602067375
10801.0,26111.0,-0.06646495560112203
10812.0,26105.0,-0.06376915581227591
10821.0,26110.0,-0.059885285276560694
10831.0,26112.0,-0.05498228055604677
10841.0,26101.0,-0.04925467527813846
10852.0,26118.0,-0.042909014278605016
10861.0,26115.0,-0.03615061385818691
10871.0,26118.0,-0.02917144494376032
10882.0,26108.0,-0.022140658499756494
10891.0,26117.0,-0.015198813000747985
10901.0,26114.0,-0.008455460257791293
10911.0,26113.0,-0.001989120466132492
10921.0,26117.0,0.004151000560918396
10931.0,26110.0,0.009942005441695852
10941.0,26119.0,0.015383621071892197
10952.0,26108.0,0.02049455329066341
10961.0,26120.0,0.02530956774165473
10971.0,26125.0,0.029877717152769125
10982.0,26122.0,0.034261266942355616
10991.0,26126.0,0.03853376546468985
11001.0,26108.0,0.042775699888069486
11011.0,26119.0,0.04706777808792975
11022.0,26121.0,0.051483683101621554
11031.0,26115.0,0.056084343850163546
11041.0,26129.0,0.06091443977078466
11052.0,26117.0,0.06600068752536702
11061.0,26125.0,0.07135118532449078
11071.0,26134.0,0.07695522166893765
11082.0,26120.0,0.08278290654651202
11091.0,26128.0,0.0887838068241878
11101.0,26122.0,0.09488429689286221
11111.0,26122.0,0.10098446216872124
11122.0,26127.0,0.10695594568267186
11131.0,26118.0,0.1126419127689988
11141.0,26126.0,0.11785994985783046
11152.0,26121.0,0.12240851555762287
11161.0,26128.0,0.12607733082397082
11171.0,26142.0,0.1286613644722234
11182.0,26135.0,0.12997662791049577
11191.0,26133.0,0.12987460104819168
11201.0,26125.0,0.12825239072728767
11211.0,26134.0,0.12505786301655503
11222.0,26130.0,0.12029074595457405
11231.0,26125.0,0.11400057580241425
11241.0,26124.0,0.10628166849943055
11252.0,26122.0,0.09726554204887518
11261.0,26119.0,0.08711184658529078
11271.0,26127.0,0.07599882895324761
11282.0,26109.0,0.06411375731315239
11291.0,26116.0,0.05164338381292111
11301.0,26102.0,0.03876503309278561
11311.0,26114.0,0.02563971554603392
11322.0,26112.0,0.012408505051380405
11331.0,26105.0,-0.0008079132254116399
11341.0,26105.0,-0.013907774808596734
11352.0,26095.0,-0.026805823154089872
11361.0,26105.0,-0.03942980418342653
11371.0,26108.0,-0.05171543296378321
11382.0,26100.0,-0.06360056867834041
11392.0,26095.0,-0.07502058449812835
11401.0,26091.0,-0.08590642520386287
11411.0,26088.0,-0.09618498465161923
11422.0,26093.0,-0.10578026653941225
11431.0,26086.0,-0.11461416099867681
11441.0,26095.0,-0.12260674250020004
11452.0,26080.0,-0.12967675011164895
11461.0,26088.0,-0.1357428970044273
11471.0,26088.0,-0.1407261133514346
11482.0,26077.0,-0.1445525115723852
11492.0,26081.0,-0.14715687242332345
11501.0,26081.0,-0.14848609319380807
11511.0,26080.0,-0.14850165580255822
11522.0,26086.0,-0.1471806286100341
11531.0,26078.0,-0.14451553223726787
11541.0,26087.0,-0.14051370521784615
11552.0,26088.0,-0.13519669318256863
11561.0,26085.0,-0.1286002379223817
11571.0,26086.0,-0.12077560674764266
11582.0,26077.0,-0.11179251801726801
11592.0,26091.0,-0.1017427865943968
11601.0,26085.0,-0.09074320403821012
11611.0,26086.0,-0.07893670751338062
11622.0,26093.0,-0.06649166752897653
11631.0,26080.0,-0.0535992064448068
11641.0,26089.0,-0.040468035711217175
11652.0,26096.0,-0.027315895168086336
11661.0,26100.0,-0.014357057546158314
11671.0,26106.0,-0.0017869418468149764
11682.0,26113.0,0.010233484424539339
11692.0,26107.0,0.021590322887711396
11701.0,26107.0,0.03222380766296083
11712.0,26105.0,0.042128775343776556
11722.0,26108.0,0.05134929833529383
11731.0,26098.0,0.05996923037424601
11741.0,26109.0,0.06810058705830684
11752.0,26107.0,0.07587157366819497
11761.0,26111.0,0.0834154678358581
11771.0,26125.0,0.09086038043711359
11782.0,26108.0,0.09831878391295866
11792.0,26107.0,0.1058755008938865
11801.0,26117.0,0.11357422398031132
11812.0,26104.0,0.12140443945030846
11822.0,26112.0,0.12929097136763187
11831.0,26119.0,0.13708762639192987
11842.0,26114.0,0.14457559255132246
11852.0,26117.0,0.1514662717533515
11861.0,26111.0,0.1574077884205517
11871.0,26112.0,0.16199510071987203
11882.0,26114.0,0.16478448579132296
11891.0,26110.0,0.1653132194591377
11901.0,26122.0,0.16312456623616411
11912.0,26111.0,0.15779715891740884
11922.0,26114.0,0.14897697993966927
11931.0,26117.0,0.13640995555157315
11942.0,26109.0,0.11997339777077798
11952.0,26116.0,0.09970446202096939
11961.0,26112.0,0.07582346405285142
11972.0,26115.0,0.04874958757030174
11982.0,26114.0,0.019106141474299256
11991.0,26104.0,-0.012287596204901805
12001.0,26100.0,-0.044440185428216636
12012.0,26091.0,-0.07622803672770212
12021.0,26072.0,-0.10645008002362563
12031.0,26071.0,-0.13389349119514526
12042.0,26060.0,-0.15740515070995742
12052.0,26051.0,-0.1759627488718858
12061.0,26047.0,-0.1887398060570561
12072.0,26032.0,-0.19515969509306194
12082.0,26048.0,-0.19493497540106372
12091.0,26054.0,-0.18809003819195183
12102.0,26048.0,-0.17496647518683497
12112.0,26060.0,-0.1562112495255703
12121.0,26064.0,-0.13274814582747302
12132.0,26064.0,-0.10573367781949132
12142.0,26081.0,-0.07649950184423567
12151.0,26076.0,-0.04648409572043844
12161.0,26086.0,-0.017157040082081777
12172.0,26102.0,0.010060388657415277
12181.0,26103.0,0.03387419348231575
12191.0,26114.0,0.05319118745812919
12202.0,26124.0,0.06718135838468346
12212.0,26117.0,0.07532354803482047
12221.0,26114.0,0.07742998395989008
12232.0,26104.0,0.07364744870245228
12242.0,26102.0,0.06443611468763098
12251.0,26097.0,0.05052969791288891
12262.0,26081.0,0.0328816191785836
12272.0,26081.0,0.012602141181063259
12281.0,26081.0,-0.009108240027924484
12292.0,26069.0,-0.031024197535981086
12302.0,26068.0,-0.05195605412489476
12311.0,26077.0,-0.07080269202308621
12322.0,26070.0,-0.08659513684845947
12332.0,26069.0,-0.09853053525616749
12341.0,26065.0,-0.10599728711609495
12352.0,26065.0,-0.10859166892497639
12362.0,26073.0,-0.10612552465357368
12372.0,26070.0,-0.09862486923648145
12381.0,26076.0,-0.08632028970484149
12392.0,26076.0,-0.06963073077958312
12402.0,26079.0,-0.04914218051615389
12411.0,26088.0,-0.025582435335631027
12422.0,26079.0,0.00020701255870301757
12432.0,26089.0,0.027301096351639537
12441.0,26091.0,0.05472298007280764
12452.0,26084.0,0.08147772661602494
12462.0,26104.0,0.10658805895583622
12471.0,26112.0,0.12913199705834663
12482.0,26112.0,0.14828072930026748
12492.0,26114.0,0.16333330704426197
12501.0,26119.0,0.1737446127418417
12512.0,26115.0,0.1791444997277583
12522.0,26120.0,0.17934721877400078
12532.0,26112.0,0.17435080100816222
12542.0,26100.0,0.16432674218804183
12552.0,26102.0,0.14960162589326662
12562.0,26088.0,0.13063384312934292
12571.0,26096.0,0.1079891993000048
12582.0,26096.0,0.08231836019500852
12592.0,26088.0,0.054337214105337685
12601.0,26093.0,0.024809393435395503
12612.0,26085.0,-0.005470564282975162
12622.0,26084.0,-0.035694789666206886
12631.0,26086.0,-0.06506151505420815
12642.0,26063.0,-0.09279724735650068
12652.0,26062.0,-0.11818171415657974
12661.0,26064.0,-0.14057392784372166
12672.0,26040.0,-0.1594365083374682
12682.0,26052.0,-0.17435585803815723
12692.0,26047.0,-0.1850567039415279
12702.0,26050.0,-0.1914099019611062
12712.0,26051.0,-0.19343297343570534
12722.0,26041.0,-0.19128370961854174
12732.0,26049.0,-0.18524759482246542
12742.0,26061.0,-0.1757198127469076
12752.0,26060.0,-0.16318285254940687
12761.0,26065.0,-0.1481813668602378
12772.0,26068.0,-0.13129635646161744
12782.0,26061.0,-0.11312048271186957
12791.0,26077.0,-0.09423553069752305
12802.0,26066.0,-0.07519233543507906
12812.0,26075.0,-0.056493248273431856
12821.0,26091.0,-0.038577334944880956
12832.0,26074.0,-0.021808937510348316
12842.0,26080.0,-0.006470711973178221
12852.0,26089.0,0.007238377923710062
12862.0,26083.0,0.019200883099458867
12872.0,26089.0,0.029375340896463282
12882.0,26090.0,0.03778758740752347
12892.0,26088.0,0.04451906185893176
12902.0,26085.0,0.04969257688267262
12912.0,26082.0,0.05345654983070915
12922.0,26082.0,0.05596951976562474
12932.0,26083.0,0.05738727315512044
12942.0,26084.0,0.05785451464387846
12951.0,26083.0,0.05750203596610515
12962.0,26095.0,0.05644931975843454
12972.0,26095.0,0.054811474712523116
12981.0,26102.0,0.05270810329773934
12992.0,26084.0,0.0502708453256956
13002.0,26087.0,0.04764719147359961
13012.0,26096.0,0.045000443148226314
13022.0,26089.0,0.04250707079554326
13032.0,26093.0,0.04035197298566647
13042.0,26096.0,0.038720995763550876
13052.0,26078.0,0.03779010734409921
13062.0,26085.0,0.03771162916322401
13072.0,26088.0,0.03859930345728043
13082.0,26084.0,0.04051453920715079
13092.0,26089.0,0.0434552157770144
13102.0,26085.0,0.04734730480670265
13112.0,26086.0,0.05203942779161978
13122.0,26080.0,0.05730085831884134
13132.0,26078.0,0.062824032554706
13141.0,26084.0,0.06823319980868466
13152.0,26089.0,0.0731007105932798
13162.0,26082.0,0.07697114702188844
13172.0,26096.0,0.0793919538288088
13182.0,26096.0,0.07994839695640772
13192.0,26097.0,0.07830008799585719
13202.0,26102.0,0.07421564476590609
13212.0,26099.0,0.06760199198062966
13222.0,26104.0,0.05852535235151686
13232.0,26106.0,0.047221478085972976
13242.0,26089.0,0.03409306958508632
13252.0,26100.0,0.01969324436233001
13262.0,26090.0,0.004695495672400641
13272.0,26074.0,-0.010148075731979568
13282.0,26073.0,-0.024057408831051296
13292.0,26059.0,-0.03627951406069146
13303.0,26061.0,-0.04614191698250435
13312.0,26069.0,-0.053098705129293294
13322.0,26060.0,-0.05676523395765934
13332.0,26061.0,-0.05693991251453219
13342.0,26073.0,-0.053612865730148576
13352.0,26062.0,-0.046961694094827505
13362.0,26073.0,-0.03733515010772323
13372.0,26080.0,-0.025226230290801347
13382.0,26084.0,-0.011236759384200323
13392.0,26091.0,0.003963449147454183
13402.0,26093.0,0.01967888396918289
13412.0,26090.0,0.035228273289625876
13422.0,26101.0,0.04997941558685698
13432.0,26090.0,0.06337735807476857
13442.0,26095.0,0.07496531542833064
13452.0,26102.0,0.08439848280554542
13463.0,26093.0,0.09145132441807319
13472.0,26100.0,0.09601876614668306
13482.0,26096.0,0.0981116377434667
13493.0,26095.0,0.09784707187668928
13502.0,26103.0,0.09543479700043113
13512.0,26091.0,0.09116009059428795
13522.0,26095.0,0.08536396484619892
13532.0,26092.0,0.07842140793539906
13542.0,26084.0,0.07071906230743297
13552.0,26086.0,0.06263408678976441
13562.0,26095.0,0.0545159836193337
13572.0,26087.0,0.04667249631071892
13582.0,26082.0,0.039359389734799965
13592.0,26084.0,0.03277353790935239
13602.0,26080.0,0.027049697068324195
13612.0,26092.0,0.022261875858025908
13623.0,26084.0,0.01842932569490194
13632.0,26089.0,0.015525845552372049
13642.0,26088.0,0.013490580844402914
13653.0,26089.0,0.012238842652692278
13662.0,26093.0,0.011671844230482495
13672.0,26086.0,0.011684312802039456
13683.0,26082.0,0.012169215857559692
13692.0,26098.0,0.013019665068604783
13702.0,26079.0,0.014128649241564662
13712.0,26093.0,0.015386989923124499
13722.0,26083.0,0.016679701693034565
13732.0,26078.0,0.017881423042227798
13742.0,26090.0,0.018852219087914002
13752.0,26088.0,0.019435177536848505
13762.0,26079.0,0.01945644091173005
13772.0,26092.0,0.018727426839498348
13783.0,26081.0,0.01704903590066643
13792.0,26080.0,0.014218010373546103
13802.0,26085.0,0.010035723856409934
13813.0,26081.0,0.004319794625005074
13822.0,26082.0,-0.003081380262486925
13832.0,26090.0,-0.012271860310673554
13843.0,26083.0,-0.023290619209580796
13852.0,26089.0,-0.03609530711272608
13862.0,26085.0,-0.05054965522309673
13873.0,26082.0,-0.06641652421603986
13882.0,26091.0,-0.08335805226374503
13892.0,26073.0,-0.10094397059042844
13902.0,26073.0,-0.11866866587010483
13912.0,26072.0,-0.13597639994794974
13922.0,26059.0,-0.1522926729822149
13932.0,26054.0,-0.16705895567957713
13943.0,26055.0,-0.17976756797018237
13952.0,26052.0,-0.18999314130974498
13962.0,26049.0,-0.1974177104582682
13973.0,26044.0,-0.20184781097184895
13982.0,26057.0,-0.20322299281638762
13992.0,26056.0,-0.2016159082776756
14003.0,26049.0,-0.19722483223465354
14012.0,26059.0,-0.19035963924167124
14022.0,26061.0,-0.1814219064399956
14033.0,26066.0,-0.1708799148751578
14042.0,26073.0,-0.1592402012494466
14052.0,26073.0,-0.1470181881470364
14063.0,26064.0,-0.134710558376752
14072.0,26080.0,-0.12277113088061706
14082.0,26071.0,-0.1115906760675418
14092.0,26074.0,-0.10148060942160383
14103.0,26086.0,-0.09266073195668903
14112.0,26075.0,-0.0852513930735243
14122.0,26085.0,-0.07927066851862424
14133.0,26079.0,-0.07463711145963164
14142.0,26082.0,-0.07117806491333596
14152.0,26093.0,-0.06864309036843382
14163.0,26073.0,-0.06672221627433748
14172.0,26075.0,-0.06506864792894514
14182.0,26083.0,-0.06332438881616824
14193.0,26070.0,-0.06114595196746564
14202.0,26076.0,-0.05822752602122625
14212.0,26079.0,-0.05431976811619268
14223.0,26083.0,-0.049242933451499576
14232.0,26085.0,-0.04289405543347788
14242.0,26080.0,-0.0352490740222477
14253.0,26079.0,-0.0263608750314857
14263.0,26090.0,-0.016353241241857892
14272.0,26082.0,-0.005410161996472911
14282.0,26095.0,0.006239472986671722
14293.0,26101.0,0.018340764321969148
14302.0,26102.0,0.030633311546402652
14312.0,26104.0,0.04287057426289182
14323.0,26102.0,0.05483541283131875
14332.0,26108.0,0.06635034542459413
14342.0,26110.0,0.07728222616605793
14353.0,26099.0,0.08754143863296651
14362.0,26106.0,0.09707606459263729
14372.0,26112.0,0.10586236541743194
14383.0,26097.0,0.11389332969027259
14392.0,26108.0,0.12116667910092914
14402.0,26109.0,0.12767367354373355
14413.0,26111.0,0.1333900369939789
14423.0,26111.0,0.13826941796663478
14432.0,26110.0,0.14223894069245968
14443.0,26110.0,0.14519656216228263
14453.0,26110.0,0.14701051868774961
14462.0,26105.0,0.14752144556328048
14473.0,26108.0,0.1465478509348562
14483.0,26116.0,0.1438955424766457
14492.0,26102.0,0.13937097536896312
14502.0,26103.0,0.13279772288156727
14513.0,26112.0,0.12403541207355491
14522.0,26101.0,0.11300089065413052
14532.0,26117.0,0.09969070662292429
14543.0,26111.0,0.08420265124618857
14552.0,26111.0,0.06675318577833338
14562.0,26119.0,0.047687291481034864
14573.0,26102.0,0.02747768617646432
14582.0,26098.0,0.006711437113061461
14592.0,26102.0,-0.01393617601466626
14603.0,26079.0,-0.03373874782478097
14613.0,26076.0,-0.051963746567890746
14622.0,26074.0,-0.06792132429034801
14633.0,26056.0,-0.08101179298086217
14643.0,26067.0,-0.09076655387702201
14652.0,26071.0,-0.09687826595420736
14663.0,26065.0,-0.09921795850004268
14673.0,26069.0,-0.09783916791034192
14682.0,26067.0,-0.09297038997604593
14693.0,26069.0,-0.08499688547769589
14703.0,26086.0,-0.07443274440542104
14712.0,26076.0,-0.06188502188989716
14722.0,26090.0,-0.04801307029537521
14733.0,26102.0,-0.03348685056990739
14742.0,26088.0,-0.018948099040147135
14752.0,26089.0,-0.0049779535479919325
14763.0,26096.0,0.007926946707324559
14772.0,26090.0,0.01937014065136946
14782.0,26096.0,0.029063871899255796
14793.0,26089.0,0.03683114165461952
14803.0,26092.0,0.04260197712296963
14812.0,26102.0,0.046404953926202246
14823.0,26080.0,0.048354882027319045
14833.0,26090.0,0.04863738455601777
14842.0,26094.0,0.04749172475778203
14853.0,26084.0,0.04519369776086903
14863.0,26092.0,0.04203962048551422
14872.0,26092.0,0.03833156358471553
14883.0,26079.0,0.03436380104119295
14893.0,26088.0,0.030410627175209703
14902.0,26086.0,0.02671614683982787
14913.0,26081.0,0.02348680567835756
14923.0,26088.0,0.02088686438544119
14932.0,26083.0,0.019036528867913755
14943.0,26085.0,0.01801230513420435
14953.0,26084.0,0.017849029836440388
14962.0,26081.0,0.018543091291596456
14972.0,26082.0,0.020056656272596174
14983.0,26081.0,0.022323017018631264
14993.0,26079.0,0.02525330664196918
15002.0,26093.0,0.028744663908907158
15013.0,26084.0,0.032689286179940526
15023.0,26092.0,0.03698288522246353
15032.0,26086.0,0.04153072089934202
15043.0,26084.0,0.04625008716583442
15053.0,26084.0,0.05106928997744926
15062.0,26088.0,0.055924069176707426
15073.0,26080.0,0.06075263089794462
15083.0,26086.0,0.06549015521212612
15092.0,26090.0,0.07006343741656991
15103.0,26079.0,0.07438611575896764
15113.0,26079.0,0.0783547318469071
15122.0,26087.0,0.08184634041307032
15133.0,26076.0,0.08471897586681006
15143.0,26087.0,0.08681587657714614
15152.0,26090.0,0.08797341797812037
15163.0,26077.0,0.08803189925000052
15173.0,26086.0,0.08684792775083526
15182.0,26089.0,0.0843075111116625
15193.0,26075.0,0.08033934914766974
15203.0,26089.0,0.07492757236281014
15213.0,26080.0,0.06812308880605723
15223.0,26085.0,0.06005278444667757
15233.0,26093.0,0.05092539609572252
15243.0,26082.0,0.041032207628934475
15252.0,26081.0,0.03074049800584236
15263.0,26080.0,0.020478521565929848
15273.0,26066.0,0.010712492743899195
15282.0,26067.0,0.0019175428411811201
15293.0,26063.0,-0.005454390799705578
15303.0,26054.0,-0.011006298034682489
15312.0,26059.0,-0.014424163145126921
15323.0,26058.0,-0.015498588760513025
15333.0,26056.0,-0.014138039066826136
15342.0,26061.0,-0.01037291872549143
15353.0,26060.0,-0.004350602045613829
15363.0,26069.0,0.00367788472226383
15372.0,26078.0,0.013378000407386662
15383.0,26065.0,0.024356045319180276
15393.0,26083.0,0.03618467737791165
15402.0,26082.0,0.048427120251716166
15413.0,26079.0,0.06065819144594419
15423.0,26075.0,0.07248049315503116
15433.0,26080.0,0.08353513825249498
15443.0,26075.0,0.09350799827366241
15453.0,26087.0,0.10213303456267393
15463.0,26075.0,0.10919366344818436
15473.0,26079.0,0.11452250664245772
15483.0,26081.0,0.11800004382728423
15493.0,26072.0,0.11955318474168962
15502.0,26080.0,0.1191548841963789
15513.0,26086.0,0.11682560352893863
15523.0,26083.0,0.11263655774121248
15532.0,26090.0,0.10671330990649029
15543.0,26086.0,0.09923742133578431
15553.0,26084.0,0.0904441032495488
15562.0,26075.0,0.08061475182337029
15573.0,26070.0,0.07006471356795373
15583.0,26065.0,0.05912832446182031
15593.0,26078.0,0.04814420489830852
15603.0,26062.0,0.03744314102373765
15613.0,26076.0,0.027339216336500275
15623.0,26075.0,0.01812360909400958
15633.0,26067.0,0.010059913633636524
15643.0,26075.0,0.0033796322737215034
15653.0,26065.0,-0.001723060764028501
15663.0,26066.0,-0.0050972618863220544
15673.0,26067.0,-0.006641251699127912
15683.0,26068.0,-0.006307328298335108
15693.0,26071.0,-0.00410477657851503
15703.0,26081.0,-0.0001010133507833783
15713.0,26070.0,0.005578163644149825
15722.0,26074.0,0.012748013303118314
15733.0,26080.0,0.02116355837296886
15743.0,26067.0,0.03051828072838763
15752.0,26077.0,0.04044405606508984
15763.0,26077.0,0.05051381549925056
15773.0,26083.0,0.060248343872940376
15782.0,26082.0,0.06912770563058471
15793.0,26082.0,0.07660679428942481
15803.0,26087.0,0.08213438814392064
15813.0,26092.0,0.08517533794408447
15823.0,26087.0,0.08523520649802589
15833.0,26084.0,0.081886181644334
15843.0,26097.0,0.07479329389240952
15853.0,26087.0,0.06374034780612581
15863.0,26094.0,0.04865448511816183
15873.0,26110.0,0.029627365875884232
15883.0,26090.0,0.006930085099304087
15893.0,26102.0,-0.018981704522665697
15903.0,26096.0,-0.0474754699079812
15913.0,26086.0,-0.07776371245795423
15923.0,26081.0,-0.10894008774017033
15933.0,26060.0,-0.1400279975906635
15944.0,26053.0,-0.17003749022644973
15953.0,26050.0,-0.1980240942393112
15963.0,26038.0,-0.22314267414091082
15972.0,26040.0,-0.24469113598977202
15983.0,26052.0,-0.26214163472941926
15993.0,26046.0,-0.27515899393836596
16003.0,26053.0,-0.28360687533989926
16013.0,26058.0,-0.28754249429201295
16023.0,26064.0,-0.2872010483804074
16033.0,26069.0,-0.2829717998139672
16043.0,26071.0,-0.27536861792894246
16053.0,26076.0,-0.26499808546374737
16063.0,26076.0,-0.2525277790131553
16073.0,26071.0,-0.23865635245465852
16083.0,26083.0,-0.22408583821994435
16093.0,26090.0,-0.2094957036727043
16103.0,26083.0,-0.19551850487127076
16113.0,26094.0,-0.18271785644831573
16123.0,26099.0,-0.171569470766839
16134.0,26108.0,-0.16244575913687864
16143.0,26108.0,-0.1556051289900236
16153.0,26107.0,-0.15118779790499048
16164.0,26105.0,-0.1492192950554052
16173.0,26110.0,-0.14962116094412173
16183.0,26106.0,-0.1522270742428088
16194.0,26106.0,-0.15680235790761296
16203.0,26111.0,-0.1630649687961323
16213.0,26096.0,-0.17070611520066573
16223.0,26111.0,-0.1794085554899296
16233.0,26115.0,-0.18886070154932047
16243.0,26108.0,-0.19876561171101276
16253.0,26110.0,-0.20884543382559442
16263.0,26124.0,-0.218842270762579
16273.0,26110.0,-0.22851613008395055
16283.0,26123.0,-0.23764092391989644
16293.0,26117.0,-0.2459997561314966
16303.0,26125.0,-0.25338037652206286
16313.0,26129.0,-0.2595715616791763
16323.0,26118.0,-0.2643614725349142
16333.0,26129.0,-0.26753885797938914
16343.0,26134.0,-0.2688971401787929
16354.0,26125.0,-0.2682409914362238
16363.0,26131.0,-0.26539522078085176
16373.0,26142.0,-0.260215510840443
16384.0,26137.0,-0.25260010765432533
16393.0,26136.0,-0.24250190897152007
16403.0,26152.0,-0.2299405022676615
16414.0,26139.0,-0.2150130582021945
16423.0,26147.0,-0.1979026166618046
16433.0,26162.0,-0.17888220288367568
16444.0,26158.0,-0.1583133310512053
16453.0,26176.0,-0.13663851986470452
16463.0,26164.0,-0.11436866992685726
16473.0,26183.0,-0.0920662066622852
16483.0,26188.0,-0.0703242964847904
16493.0,26183.0,-0.04974245855955964
16503.0,26198.0,-0.03089936971793553
16513.0,26201.0,-0.014323669528551795
16523.0,26211.0,-0.0004635789586871273
16533.0,26209.0,0.010343118582597373
16544.0,26217.0,0.017896636414790744
16553.0,26232.0,0.022158421927824877
16563.0,26238.0,0.02326806893207857
16574.0,26228.0,0.021550882941085564
16583.0,26233.0,0.017512972366712717
16593.0,26231.0,0.01182279990620586
16604.0,26212.0,0.005280824545417951
16613.0,26226.0,-0.001219248744985245
16623.0,26230.0,-0.006733057346466837
16634.0,26226.0,-0.01030801575216658
16643.0,26227.0,-0.011023584705789737
16653.0,26233.0,-0.008028436897446822
16663.0,26236.0,-0.0005732426262861156
16673.0,26246.0,0.011962132335102555
16683.0,26249.0,0.030047260081615856
16693.0,26256.0,0.0539850016891903
16704.0,26268.0,0.08389972752404953
16713.0,26271.0,0.11972913420210947
16723.0,26278.0,0.16121896853254203
16734.0,26277.0,0.2079204441507148
16743.0,26290.0,0.2591913304070984
16753.0,26307.0,0.31420272677540184
16764.0,26299.0,0.37195325454556477
16773.0,26321.0,0.43129139878398454
16783.0,26343.0,0.49094628522269157
16794.0,26345.0,0.5495664504702907
16803.0,26358.0,0.6057644083531394
16813.0,26374.0,0.6581638608684826
16824.0,26381.0,0.7054469396386907
16833.0,26396.0,0.7463991472352632
16843.0,26394.0,0.7799493507305848
16853.0,26405.0,0.8052024453012371
16864.0,26413.0,0.8214632490728921
16873.0,26400.0,0.8282509611483324
16883.0,26406.0,0.8253041428146276
16894.0,26406.0,0.8125773446721655
16903.0,26397.0,0.7902315464213104
16913.0,26404.0,0.7586204969189888
16924.0,26391.0,0.7182744014143365
16933.0,26388.0,0.669881973220632
16943.0,26392.0,0.6142716243999049
16954.0,26376.0,0.5523921761287098
16963.0,26367.0,0.4852928522963185
16973.0,26366.0,0.41410225285739855
16984.0,26351.0,0.3400065952064867
16993.0,26355.0,0.2642275422035079
17003.0,26341.0,0.18799911784427492
17014.0,26326.0,0.11254254051783336
17024.0,26313.0,0.039038223846959555
17033.0,26292.0,-0.031404037683626575
17043.0,26298.0,-0.09777362863021166
17054.0,26295.0,-0.1591828735021197
17063.0,26286.0,-0.21488433905672388
17073.0,26282.0,-0.264282642208941
17084.0,26279.0,-0.3069426970754623
17093.0,26284.0,-0.34259575886324084
17103.0,26270.0,-0.37114433326254925
17114.0,26258.0,-0.3926669630640226
17123.0,26258.0,-0.40742251695618303
17133.0,26260.0,-0.4158513537449919
17144.0,26254.0,-0.41856999627191005
17153.0,26261.0,-0.4163571725101926
17163.0,26262.0,-0.4101305063344587
17174.0,26252.0,-0.4009138990991644
17184.0,26267.0,-0.38979586968761104
17193.0,26263.0,-0.37787904432126845
17204.0,26277.0,-0.3662214862115836
17214.0,26295.0,-0.35577220540474724
17223.0,26292.0,-0.3473054744933785
17233.0,26308.0,-0.3413604943242803
17244.0,26326.0,-0.338193615289646
17253.0,26312.0,-0.337750062193688
17263.0,26309.0,-0.3396612289938517
17274.0,26303.0,-0.34327072179827806
17283.0,26286.0,-0.34768754781256156
17293.0,26288.0,-0.35186071436887345
17304.0,26269.0,-0.35466724290843893
17313.0,26269.0,-0.3550046537848823
17323.0,26276.0,-0.35187896976845223
17334.0,26264.0,-0.34448045040501685
17344.0,26274.0,-0.3322414229804918
17353.0,26290.0,-0.31487273084109046
17364.0,26293.0,-0.29237751448525723
17374.0,26301.0,-0.2650438637033301
17383.0,26300.0,-0.23341992715031176
17394.0,26310.0,-0.19827492904064833
17404.0,26324.0,-0.16054849061049828
17413.0,26327.0,-0.12129065154957477
17423.0,26337.0,-0.08159605208125617
17434.0,26352.0,-0.042536515217225755
17443.0,26346.0,-0.005096300820310614
17453.0,26361.0,0.029886030971143545
17464.0,26375.0,0.0617658569096228
17473.0,26368.0,0.09012798077058887
17483.0,26383.0,0.11480647386133744
17494.0,26382.0,0.13588645564913782
17504.0,26374.0,0.15368676822734662
17513.0,26382.0,0.1687241332913369
17524.0,26362.0,0.18166130233717684
17534.0,26368.0,0.1932437537354997
17543.0,26366.0,0.20423099602866363
17554.0,26360.0,0.21532892586523772
17564.0,26368.0,0.22712887180313257
17573.0,26368.0,0.2400576386738128
17584.0,26366.0,0.25434152951508887
17594.0,26380.0,0.2699860045773925
17605.0,26376.0,0.28677147794422797
17613.0,26383.0,0.30426463794818925
17624.0,26380.0,0.32184381412411045
17634.0,26384.0,0.33873682053509396
17643.0,26385.0,0.35407003291627914
17653.0,26399.0,0.3669273374587579
17664.0,26414.0,0.3764163881272158
17673.0,26405.0,0.38173734349018473
17683.0,26420.0,0.38224739679360104
17694.0,26419.0,0.3775145026374761
17704.0,26419.0,0.3673549836250164
17713.0,26415.0,0.35185084843838615
17724.0,26400.0,0.33134417199931776
17734.0,26383.0,0.30640859609698323
17743.0,26377.0,0.2778015111454725
17754.0,26354.0,0.24640354060844738
17764.0,26356.0,0.21315343137364637
17773.0,26357.0,0.17898607505076042
17784.0,26350.0,0.14477923063403686
17794.0,26346.0,0.11131134690090687
17803.0,26342.0,0.07923063902028314
17814.0,26334.0,0.04903514048745619
17824.0,26336.0,0.021063689905380427
17833.0,26335.0,-0.004502375865517971
17843.0,26329.0,-0.027627845830147397
17854.0,26335.0,-0.04840455989062338
17864.0,26323.0,-0.06702711469778351
17873.0,26318.0,-0.083765650183495
17884.0,26324.0,-0.09893723600699803
17894.0,26316.0,-0.11287660749296793
17903.0,26320.0,-0.12590714247750195
17914.0,26312.0,-0.1383136349579352
17924.0,26317.0,-0.15031855460019536
17933.0,26324.0,-0.16206330494957555
17944.0,26315.0,-0.17359636766055514
17954.0,26314.0,-0.18487077374669222
17963.0,26309.0,-0.19575275122568891
17974.0,26286.0,-0.2060414215552072
17984.0,26291.0,-0.21549692186133557
17994.0,26280.0,-0.22387216530875778
18004.0,26283.0,-0.23094273872544877
18014.0,26287.0,-0.23653069238821942
18024.0,26276.0,-0.24052011014872254
18033.0,26287.0,-0.24286399317564933
18044.0,26290.0,-0.24358283309491727
18054.0,26284.0,-0.24275600775225958
18063.0,26293.0,-0.24050804543593388
18074.0,26298.0,-0.2369921720160301
18084.0,26293.0,-0.23237358208252235
18093.0,26294.0,-0.22681499383172896
18104.0,26286.0,-0.22046639744626606
18114.0,26291.0,-0.2134592548545036
18123.0,26297.0,-0.2059041338558912
18134.0,26285.0,-0.19789084570956392
18144.0,26287.0,-0.18949074657221254
18153.0,26301.0,-0.18076065257851764
18164.0,26282.0,-0.17174742932015732
18174.0,26292.0,-0.16249267408968088
18184.0,26293.0,-0.15303701191252528
18194.0,26292.0,-0.1434231487667263
18204.0,26302.0,-0.13369721919848443
18214.0,26294.0,-0.12390892562859854
18223.0,26292.0,-0.11411130026237111
18234.0,26307.0,-0.1043603732378069
18244.0,26295.0,-0.09471448578557397
18253.0,26295.0,-0.08523319163788498
18264.0,26303.0,-0.07597578735649002
18274.0,26299.0,-0.06699899644373353
18283.0,26307.0,-0.05835340918016878
18294.0,26298.0,-0.05007908331858585
18304.0,26305.0,-0.04220096983353061
18314.0,26314.0,-0.03472447903432186
18324.0,26297.0,-0.02763155456664169
18334.0,26312.0,-0.020877967697934725
18344.0,26311.0,-0.014392285097954056
18354.0,26304.0,-0.008076590100186045
18364.0,26313.0,-0.0018091912194327323
18374.0,26310.0,0.004550500282579384
18384.0,26309.0,0.011155064083398872
18394.0,26317.0,0.0181602819541554
18404.0,26307.0,0.025714556471511954
18413.0,26312.0,0.03394681771587256
18424.0,26319.0,0.04295356550180287
18434.0,26309.0,0.0527858563095023
18443.0,26308.0,0.06343689768279347
18454.0,26315.0,0.0748312784481875
18464.0,26314.0,0.08681757326012061
18474.0,26323.0,0.09916568450458742
18484.0,26311.0,0.11156900952233231
18494.0,26322.0,0.12365096301780018
18504.0,26327.0,0.13497576701139277
18514.0,26313.0,0.1450635024652514
18524.0,26321.0,0.15340909043230716
18534.0,26327.0,0.15950514707422
18544.0,26326.0,0.16286883660635987
18554.0,26328.0,0.16307175424691084
18564.0,26326.0,0.15977069404901892
18574.0,26328.0,0.15273717123961061
18584.0,26331.0,0.14188401495555325
18594.0,26325.0,0.12728731362921386
18603.0,26339.0,0.10920164229618269
18614.0,26337.0,0.088066049184719
18624.0,26325.0,0.06449771575174602
18634.0,26317.0,0.03927053048494314
18644.0,26307.0,0.013278194829178594
18654.0,26295.0,-0.012515195200241169
18664.0,26300.0,-0.03713202927206864
18674.0,26276.0,-0.05964010592449775
18684.0,26283.0,-0.07920865818686
18694.0,26276.0,-0.09515693028889975
18704.0,26267.0,-0.1069912312101428
18714.0,26280.0,-0.11442740978246067
18724.0,26281.0,-0.11739710788036309
18734.0,26286.0,-0.11603810594543221
18744.0,26292.0,-0.11067133377447091
18754.0,26296.0,-0.10176848962314865
18765.0,26293.0,-0.08991436648029834
18774.0,26305.0,-0.07576745528802072
18784.0,26300.0,-0.06002158848844954
18794.0,26307.0,-0.04337074886965094
18804.0,26304.0,-0.02647869084646138
18814.0,26304.0,-0.009954276224574874
18824.0,26312.0,0.005667482810100633
18834.0,26312.0,0.01993915538916017
18844.0,26322.0,0.03250954191345224
18854.0,26321.0,0.04312657415682737
18864.0,26307.0,0.05163346051619867
18874.0,26309.0,0.05795815832025589
18884.0,26319.0,0.06209841721509258
18895.0,26307.0,0.06410570903495173
18904.0,26315.0,0.06407036131644547
18914.0,26314.0,0.06210896428142154
18925.0,26313.0,0.05835471013790815
18934.0,26314.0,0.05295098418935834
18944.0,26310.0,0.04604817020973671
18954.0,26315.0,0.03780361826410404
18964.0,26322.0,0.02838456936342412
18974.0,26315.0,0.017972998973091507
18984.0,26312.0,0.006770431297088727
18994.0,26316.0,-0.004998999170636913
19004.0,26307.0,-0.017087810630557487
19014.0,26314.0,-0.02922662161907541
19024.0,26295.0,-0.041127535884416866
19034.0,26303.0,-0.052488814658775126
19044.0,26316.0,-0.06299959798084301
19055.0,26304.0,-0.07234403594475473
19064.0,26311.0,-0.08020602287562367
19074.0,26302.0,-0.08627654364738953
19085.0,26304.0,-0.0902644832514261
19094.0,26305.0,-0.09191026945930682
19104.0,26302.0,-0.09100115055013945
19114.0,26303.0,-0.08738697700671949
19124.0,26309.0,-0.08099547037178259
19134.0,26302.0,-0.07184603911149887
19144.0,26303.0,-0.060061274367208935
19154.0,26310.0,-0.04587497690025367
19164.0,26312.0,-0.029635246012693163
19174.0,26320.0,-0.011801738547733129
19185.0,26311.0,0.007062676252784856
19194.0,26313.0,0.026305409558298364
19204.0,26333.0,0.0452031881601094
19215.0,26316.0,0.06298733879340405
19224.0,26325.0,0.07887510501756548
19234.0,26336.0,0.09210617990451947
19245.0,26334.0,0.10198365102949453
19254.0,26344.0,0.10791766808587169
19264.0,26347.0,0.10946873114714113
19275.0,26353.0,0.10638681917650987
19284.0,26359.0,0.09864233923043625
19294.0,26349.0,0.08644477985162353
19305.0,26349.0,0.07024567384736483
19314.0,26355.0,0.05072424305157441
19324.0,26338.0,0.028755818410194013
19334.0,26324.0,0.005364226859680688
19344.0,26328.0,-0.018338979181187418
19354.0,26308.0,-0.041223254782995586
19364.0,26301.0,-0.06220935377013914
19375.0,26299.0,-0.08033470448171456
19384.0,26306.0,-0.09480770244934249
19394.0,26307.0,-0.1050463919480656
19405.0,26296.0,-0.110699999952109
19414.0,26312.0,-0.11165388783335928
19424.0,26324.0,-0.10801904979183026
19435.0,26316.0,-0.1001083300305048
19444.0,26323.0,-0.08840329046947379
19454.0,26330.0,-0.07351590149866487
19465.0,26334.0,-0.056148027125623855
19474.0,26333.0,-0.03705112566103195
19484.0,26338.0,-0.016988558379599946
19495.0,26335.0,0.0032978657553846442
19504.0,26350.0,0.0231165677084788
19514.0,26333.0,0.04185001876639896
19524.0,26344.0,0.058973791925276464
19535.0,26359.0,0.07407143460422907
19544.0,26352.0,0.08684566669133174
19554.0,26363.0,0.09712502636820486
19565.0,26360.0,0.10486407448919904
19574.0,26356.0,0.11013586858018015
19584.0,26357.0,0.11311679225583929
19595.0,26346.0,0.11406526083642447
19604.0,26350.0,0.113297114375852
19614.0,26358.0,0.11116108805276427
19625.0,26343.0,0.10801708807689897
19634.0,26356.0,0.10421865696765308
19644.0,26358.0,0.10010016615733168
19655.0,26355.0,0.095968689971676
19664.0,26367.0,0.09209948254759885
19674.0,26359.0,0.08873316709912904
19685.0,26352.0,0.08607283522726428
19695.0,26358.0,0.08428028693202379
19704.0,26355.0,0.08347213078727302
19714.0,26357.0,0.0837170726473736
19725.0,26365.0,0.08503503217754028
19734.0,26357.0,0.08739775959430995
19744.0,26363.0,0.090730140021132
19755.0,26362.0,0.09491156392302609
19764.0,26364.0,0.0997772608741549
19774.0,26371.0,0.105119622200046
19785.0,26360.0,0.11068925555918493
19794.0,26364.0,0.11619556259729552
19804.0,26364.0,0.12130742227528597
19815.0,26364.0,0.12565536778391062
19824.0,26366.0,0.12883654517167242
19834.0,26365.0,0.13042307156703342
19845.0,26365.0,0.1299739482141375
19855.0,26363.0,0.1270505378447758
19864.0,26367.0,0.12123557949654533
19875.0,26362.0,0.11215553338663592
19885.0,26371.0,0.09950556208170203
19894.0,26353.0,0.08307588205076137
19904.0,26358.0,0.06277812311151372
19915.0,26371.0,0.03867077411438813
19924.0,26355.0,0.01098254624256651
19934.0,26367.0,-0.01986897100617725
19945.0,26361.0,-0.05326700188561245
19954.0,26365.0,-0.08839707497944846
19964.0,26359.0,-0.12426341919727996
19975.0,26341.0,-0.15972279056271582
19984.0,26328.0,-0.19353621865028398
19994.0,26333.0,-0.2244357945526725
20005.0,26297.0,-0.2512008280013656
20015.0,26298.0,-0.2727364326184277
20024.0,26295.0,-0.28814673021604215
20035.0,26297.0,-0.296794679608504
20045.0,26301.0,-0.29834270988509637
20054.0,26301.0,-0.29277190312902246
20065.0,26303.0,-0.2803799923987411
20075.0,26319.0,-0.2617594918785527
20084.0,26319.0,-0.23775805865790084
20094.0,26333.0,-0.209424451161485
20105.0,26349.0,-0.17794474154854478
20114.0,26343.0,-0.14457426345194938
20124.0,26353.0,-0.11057089056040274
20135.0,26362.0,-0.07713414341441958
20144.0,26357.0,-0.045352910026669996
20154.0,26370.0,-0.016163485218194856
20165.0,26364.0,0.009681020171741248
20175.0,26363.0,0.031629723587275164
20184.0,26379.0,0.04934225530565565
20195.0,26369.0,0.06268755993856366
20205.0,26368.0,0.07173422993973295
20214.0,26375.0,0.07673332122398535
20225.0,26375.0,0.07809521089356106
20235.0,26371.0,0.07636210313984168
20244.0,26374.0,0.07217714396178712
20255.0,26370.0,0.06625100804177773
20265.0,26369.0,0.05932722793371138
20274.0,26357.0,0.05214786381430743
20284.0,26369.0,0.04542157356462177
20295.0,26366.0,0.03979639549955051
20304.0,26359.0,0.03583875961179593
20314.0,26371.0,0.03401904434098625
20325.0,26371.0,0.034703453337526606
20335.0,26378.0,0.03815142172860694
20344.0,26378.0,0.04451664166807016
20355.0,26379.0,0.05384920563508025
20365.0,26369.0,0.06609706025156009
20374.0,26391.0,0.0811064518396801
20385.0,26375.0,0.09862212178283151
20395.0,26384.0,0.11828796946114023
20404.0,26390.0,0.13964866741127377
20415.0,26382.0,0.16215298957630925
20425.0,26399.0,0.1851597280260506
20434.0,26394.0,0.2079467912201637
20445.0,26397.0,0.22972370334195752
20455.0,26404.0,0.24964747502255036
20464.0,26403.0,0.2668418597105325
20475.0,26403.0,0.2804200224322384
20485.0,26406.0,0.28951053722925246
20495.0,26398.0,0.29328678284052945
20504.0,26396.0,0.2910001815699449
20515.0,26412.0,0.2820179500016243
20525.0,26403.0,0.2658653294757736
20534.0,26413.0,0.24227024497329122
20545.0,26411.0,0.2112063148192776
20555.0,26407.0,0.17292934433285118
20564.0,26409.0,0.12800257277150617
20575.0,26403.0,0.07730649183418438
20585.0,26395.0,0.02202981560006965
20594.0,26401.0,-0.03636096428472078
20605.0,26361.0,-0.09617489657389128
20615.0,26354.0,-0.15557215232860283
20624.0,26331.0,-0.21265757274889951
20635.0,26306.0,-0.26558383339019975
20645.0,26303.0,-0.3126535830204458
20654.0,26309.0,-0.35240996479035025
20665.0,26300.0,-0.38370747831666935
20675.0,26311.0,-0.40575962038620667
20685.0,26298.0,-0.41816357811670146
20695.0,26304.0,-0.42090370365703367
20705.0,26322.0,-0.41433550031372113
20715.0,26312.0,-0.39915226795497233
20724.0,26319.0,-0.3763377878377355
20735.0,26336.0,-0.34710892648681374
20745.0,26338.0,-0.31285159328248097
20754.0,26347.0,-0.2750537310390706
20765.0,26352.0,-0.23523961232233906
20775.0,26354.0,-0.19490914039726245
20784.0,26358.0,-0.15548439763638908
20795.0,26359.0,-0.1182642374852192
20805.0,26368.0,-0.08438659747881236
20814.0,26380.0,-0.05479786555731877
20825.0,26375.0,-0.030229351669714945
20835.0,26383.0,-0.011181874925873806
20844.0,26387.0,0.0020805224236700253
20855.0,26382.0,0.009527432519580568
20865.0,26375.0,0.011349850904262944
20875.0,26387.0,0.007940084287496816
20885.0,26372.0,-0.00013403241762661522
20895.0,26370.0,-0.01215831466310735
20905.0,26375.0,-0.02730266118584544
20915.0,26371.0,-0.0446505675460787
20925.0,26370.0,-0.06322624650237611
20935.0,26367.0,-0.08201909481397265
20945.0,26373.0,-0.10000579270640529
20955.0,26371.0,-0.1161705197215293
20965.0,26365.0,-0.12952431003168882
20975.0,26372.0,-0.13912482065514234
20985.0,26373.0,-0.14409735026967085
20995.0,26369.0,-0.14365766247106748
21005.0,26372.0,-0.13713719788901832
21015.0,26378.0,-0.12401080208920795
21025.0,26372.0,-0.10392635545171844
21034.0,26372.0,-0.07673516945048839
21045.0,26378.0,-0.042521159759716
21055.0,26374.0,-0.0016256422580322666
21064.0,26386.0,0.04533590524408611
21075.0,26396.0,0.09746834828117278
21085.0,26400.0,0.15360477907023923
21095.0,26415.0,0.2123284010789265
21105.0,26417.0,0.27200793739447154
21115.0,26432.0,0.33084564806969724
21125.0,26447.0,0.38693668920437657
21135.0,26453.0,0.43833769047167737
21145.0,26457.0,0.4831412922945414
21155.0,26466.0,0.5195530393628258
21165.0,26467.0,0.545967753322703
21175.0,26472.0,0.5610432162594811
21185.0,26479.0,0.563769028530127
21195.0,26473.0,0.553528107553197
21205.0,26486.0,0.5301477751338236
21215.0,26488.0,0.4939367985056629
21225.0,26479.0,0.44570393317244306
21235.0,26483.0,0.3867529696793769
21245.0,26480.0,0.31884989927442237
21255.0,26440.0,0.24415935870656919
21265.0,26430.0,0.1651501769817611
21275.0,26410.0,0.08447437824483317
21285.0,26378.0,0.004828524576263068
21295.0,26369.0,-0.07119154278645833
21305.0,26350.0,-0.1412310726889912
21315.0,26326.0,-0.20330079149323738
21325.0,26330.0,-0.2558754520484755
21335.0,26333.0,-0.29795865459937143
21345.0,26325.0,-0.3291094140259319
21355.0,26336.0,-0.3494304474034991
21365.0,26340.0,-0.35952166706530975
21375.0,26349.0,-0.36040436923650443
21385.0,26363.0,-0.3534233168169357
21395.0,26373.0,-0.34013553717972783
21405.0,26372.0,-0.3221956192271062
21415.0,26383.0,-0.30124697696119074
21425.0,26384.0,-0.27882674476219943
21435.0,26383.0,-0.2562896151858564
21445.0,26379.0,-0.23475374555068007
21455.0,26383.0,-0.21506951075984165
21466.0,26374.0,-0.19780956447971182
21475.0,26388.0,-0.1832772391695543
21485.0,26378.0,-0.1715299904133745
21496.0,26372.0,-0.1624148041571322
21505.0,26378.0,-0.15561222891502247
21515.0,26372.0,-0.15068482360881733
21526.0,26371.0,-0.14712553219145644
21535.0,26381.0,-0.14440221100688563
21545.0,26376.0,-0.14199561533330834
21556.0,26378.0,-0.13942939950599467
21565.0,26389.0,-0.13629174371700065
21575.0,26376.0,-0.13224877770692725
21586.0,26384.0,-0.12705025302754955
21595.0,26395.0,-0.12052788933254878
21605.0,26383.0,-0.1125869188888976
21616.0,26392.0,-0.10319200443376805
21625.0,26408.0,-0.09234907563808493
21635.0,26402.0,-0.08008487004560663
21646.0,26409.0,-0.06642695222530894
21655.0,26414.0,-0.05138750905409854
21665.0,26409.0,-0.034953305202784835
21676.0,26416.0,-0.017082905315566572
21685.0,26416.0,0.0022887346630766888
21695.0,26412.0,0.02323905482435897
21705.0,26419.0,0.04584149252207636
21715.0,26427.0,0.07014584406055238
21725.0,26427.0,0.0961572007435007
21735.0,26429.0,0.1238144626264172
21745.0,26435.0,0.15296911039728278
21755.0,26440.0,0.1833654157140521
21765.0,26441.0,0.2146235493334278
21775.0,26443.0,0.24622686326946278
21785.0,26441.0,0.2775147803012203
21795.0,26454.0,0.30768330477678396
21805.0,26452.0,0.33579524077727796
21815.0,26448.0,0.36080138963231034
21825.0,26460.0,0.38157327770084437
21836.0,26461.0,0.3969477889427377
21845.0,26470.0,0.4057832830956365
21855.0,26472.0,0.407024949209362
21866.0,26468.0,0.39977553929429155
21875.0,26476.0,0.3833671416432831
21885.0,26477.0,0.3574297902649519
21896.0,26474.0,0.3219524684386946
21905.0,26485.0,0.2773313379035366
21915.0,26490.0,0.2243993048375801
21926.0,26472.0,0.16443036238324485
21935.0,26462.0,0.0991124346171801
21945.0,26446.0,0.03048532493268842
21956.0,26408.0,-0.03915474589318399
21965.0,26387.0,-0.10737746968311578
21975.0,26378.0,-0.17175663056991464
21986.0,26355.0,-0.2300105920835381
21995.0,26343.0,-0.28013224890796856
22005.0,26347.0,-0.3204980155565768
22016.0,26340.0,-0.3499480126001227
22025.0,26348.0,-0.36783289412964115
22035.0,26353.0,-0.3740265320213282
22046.0,26351.0,-0.3689067801081724
22055.0,26372.0,-0.35330839719539714
22065.0,26379.0,-0.3284534233856124
22076.0,26385.0,-0.29586556118640933
22085.0,26395.0,-0.25727605739684145
22095.0,26402.0,-0.21452817188676793
22106.0,26399.0,-0.1694858268266634
22115.0,26417.0,-0.12395037857879228
22125.0,26421.0,-0.07958809154407638
22136.0,26421.0,-0.037870304689297106
22145.0,26424.0,-2.802994293302891e-05
22155.0,26428.0,0.03297839635951302
22166.0,26437.0,0.060475479611437476
22176.0,26439.0,0.08207976686387114
22185.0,26437.0,0.09768864121893647
22196.0,26433.0,0.10745913434688056
22206.0,26439.0,0.11177621087480119
22215.0,26426.0,0.11121321136290344
22225.0,26432.0,0.10648765246606853
22236.0,26436.0,0.09841551324984688
22245.0,26424.0,0.08786654048122415
22255.0,26425.0,0.0757221913376803
22266.0,26427.0,0.06283757990609694
22275.0,26421.0,0.05000902987206959
22285.0,26425.0,0.03794841713376394
22296.0,26421.0,0.02726464469465286
22305.0,26419.0,0.018452119415334648
22315.0,26412.0,0.011886077533000786
22326.0,26425.0,0.007824894205361099
22335.0,26422.0,0.0064194449363654685
22345.0,26422.0,0.007728522683313103
22356.0,26438.0,0.011738060009526242
22365.0,26433.0,0.01838128768390006
22375.0,26438.0,0.027556598423419332
22386.0,26441.0,0.03913993249720511
22395.0,26431.0,0.05298956249003341
22405.0,26435.0,0.0689428880989408
22416.0,26432.0,0.08680667165036078
22425.0,26439.0,0.10634341931945603
22435.0,26445.0,0.12725660751648074
22446.0,26442.0,0.1491763991996618
22455.0,26435.0,0.17164669097800647
22465.0,26445.0,0.1941148661400708
22476.0,26442.0,0.21592684172379387
22485.0,26453.0,0.23633008800965488
22495.0,26456.0,0.25448590432399626
22506.0,26449.0,0.26949063810069307
22516.0,26458.0,0.28040486847860246
22525.0,26467.0,0.28628974156962256
22536.0,26448.0,0.28624945055415624
22546.0,26460.0,0.27947821639155723
22555.0,26463.0,0.2653101776086879
22566.0,26457.0,0.24327061642157852
22576.0,26456.0,0.2131258395889252
22585.0,26467.0,0.17492802937160318
22596.0,26444.0,0.12905117391257143
22606.0,26455.0,0.07621414219129426
22615.0,26452.0,0.01748728835713695
22626.0,26443.0,-0.04572062544824854
22636.0,26429.0,-0.11169836578291997
22645.0,26414.0,-0.17849309322570864
22656.0,26384.0,-0.24399505872148336
22666.0,26375.0,-0.30604100348256735
22675.0,26356.0,-0.3625278269846694
22686.0,26346.0,-0.411526636560573
22696.0,26332.0,-0.45138779231950005
22705.0,26331.0,-0.48082887553020326
22716.0,26328.0,-0.49899902525327755
22726.0,26343.0,-0.5055153108211637
22735.0,26338.0,-0.5004699498058127
22746.0,26349.0,-0.4844103139656203
22756.0,26358.0,-0.4582955410435466
22765.0,26363.0,-0.42343421990183383
22776.0,26376.0,-0.381407990893877
22786.0,26387.0,-0.33398623605857686
22795.0,26397.0,-0.2830371949146678
22805.0,26407.0,-0.23044091825575333
22816.0,26412.0,-0.17800917710621794
22825.0,26404.0,-0.12741628485007542
22835.0,26422.0,-0.08014266873643006
22846.0,26428.0,-0.03743090230707375
22856.0,26432.0,-0.00025344679244242857
22865.0,26438.0,0.030707605377540987
22876.0,26439.0,0.055067961725566
22886.0,26441.0,0.07273557180003483
22895.0,26448.0,0.08389276698199438
22906.0,26441.0,0.08896718654610355
22916.0,26438.0,0.08859280012825728
22925.0,26434.0,0.08356306090259161
22936.0,26431.0,0.07477943712729179
22946.0,26426.0,0.06319932150760997
22955.0,26432.0,0.049787110846638255
22966.0,26422.0,0.03547136386968186
22976.0,26421.0,0.021109885719393998
22985.0,26427.0,0.007463930720623696
22996.0,26420.0,-0.004817697050616221
23006.0,26421.0,-0.015204645320844206
23015.0,26435.0,-0.023281994110545087
23026.0,26424.0,-0.02873986666430171
23036.0,26430.0,-0.031358207809803626
23045.0,26440.0,-0.03098961136635638
23056.0,26429.0,-0.027542733141977287
23066.0,26436.0,-0.020968517495146992
23075.0,26440.0,-0.011250899350867172
23086.0,26432.0,0.0015973192017070701
23096.0,26440.0,0.017533416976536525
23105.0,26452.0,0.036478981599049824
23116.0,26436.0,0.058309993492740415
23126.0,26446.0,0.08284322842241734
23135.0,26461.0,0.10982006030780948
23146.0,26439.0,0.13888951446218026
23156.0,26454.0,0.16959244305070112
23165.0,26463.0,0.20134907157708715
23176.0,26457.0,0.23345263083838905
23186.0,26462.0,0.26507100168910847
23195.0,26476.0,0.295257420728462
23206.0,26471.0,0.32297106774867773
23216.0,26483.0,0.3471076003976369
23226.0,26479.0,0.3665386748515122
23236.0,26480.0,0.38015922816677167
23246.0,26495.0,0.3869414419219352
23256.0,26500.0,0.38599381774425334
23266.0,26501.0,0.3766222214181957
23276.0,26497.0,0.35838822418772703
23286.0,26499.0,0.3311600378928968
23296.0,26503.0,0.29515225039379656
23306.0,26504.0,0.2509510257502682
23316.0,26494.0,0.19952130889531053
23326.0,26486.0,0.14219257415656872
23336.0,26481.0,0.08062035127962694
23346.0,26453.0,0.01672239056555356
23356.0,26427.0,-0.04740883840752274
23366.0,26422.0,-0.10961152455071514
23376.0,26387.0,-0.16776814493520067
23386.0,26387.0,-0.21991614287484412
23396.0,26399.0,-0.26434528020553694
23406.0,26377.0,-0.29967419262532313
23415.0,26392.0,-0.32490296182958467
23426.0,26390.0,-0.3394417917576817
23436.0,26390.0,-0.343117244343303
23445.0,26400.0,-0.33615835678488454
23456.0,26408.0,-0.3191657403169625
23466.0,26406.0,-0.29306728971227713
23475.0,26417.0,-0.25906440729092145
23486.0,26425.0,-0.21857222538991586
23496.0,26425.0,-0.17315655602324673
23505.0,26438.0,-0.12446985494005355
23516.0,26445.0,-0.0741880870262598
23526.0,26449.0,-0.023950021889042217
23535.0,26469.0,0.024699490284665514
23546.0,26471.0,0.07036041714648783
23556.0,26476.0,0.11182038892211171
23566.0,26483.0,0.1480873555062861
23576.0,26483.0,0.17841095734944418
23586.0,26494.0,0.20229271297634158
23596.0,26490.0,0.21948562018954262
23606.0,26488.0,0.22998386658033468
23616.0,26493.0,0.23400381720910873
23626.0,26496.0,0.23195815566076888
23636.0,26479.0,0.2244251479825468
23646.0,26488.0,0.21211483319011143
23656.0,26497.0,0.1958342700354247
23666.0,26476.0,0.17645369131560212
23676.0,26484.0,0.15487420340875835
23686.0,26485.0,0.13199735111457087
23696.0,26472.0,0.10869737085237068
23706.0,26479.0,0.08579677157748779
23716.0,26476.0,0.06404547920075691
23726.0,26460.0,0.04410376653669304
23736.0,26474.0,0.026529329923248253
23746.0,26475.0,0.0117690558684845
23756.0,26466.0,0.00015544210853056972
23766.0,26473.0,-0.008093595342190875
23776.0,26471.0,-0.01287302028467733
23786.0,26464.0,-0.014187796693946333
23796.0,26478.0,-0.012148985839343191
23806.0,26478.0,-0.00696887947148248
23816.0,26470.0,0.0010443425575015872
23826.0,26481.0,0.011491583555556243
23836.0,26476.0,0.023887223420545063
23846.0,26471.0,0.03766370081026671
23856.0,26475.0,0.05217767793537073
23866.0,26483.0,0.06671975161132639
23877.0,26482.0,0.08052952436583691
23886.0,26487.0,0.09281651667695853
23896.0,26491.0,0.10278613906966524
23907.0,26490.0,0.10966953096318782
23916.0,26495.0,0.1127559795386724
23926.0,26490.0,0.11142658529636237
23937.0,26497.0,0.10518793806353828
23946.0,26502.0,0.09370456725077422
23956.0,26508.0,0.07682851696373294
23967.0,26508.0,0.05462378927586632
23976.0,26517.0,0.027383153959614357
23986.0,26506.0,-0.0043650384916456494
23997.0,26502.0,-0.03986230258480884
24006.0,26504.0,-0.07814000166112596
24016.0,26477.0,-0.11805587703326849
24027.0,26462.0,-0.15834769023380776
24036.0,26455.0,-0.19770142842472743
24046.0,26430.0,-0.23482803103898384
24056.0,26430.0,-0.2685405909477388
24066.0,26425.0,-0.2978237643215782
24076.0,26420.0,-0.3218884085416288
24086.0,26430.0,-0.340207036645761
24096.0,26433.0,-0.35252867744222627
24106.0,26421.0,-0.3588743514222957
24116.0,26437.0,-0.3595158659039358
24126.0,26445.0,-0.35494080366228714
24136.0,26443.0,-0.34580697463912075
24146.0,26454.0,-0.33289088436677056
24156.0,26451.0,-0.3170352617906759
24166.0,26459.0,-0.299099774177719
24176.0,26457.0,-0.2799178681342818
24186.0,26463.0,-0.2602617202758091
24196.0,26460.0,-0.24081642059529654
24206.0,26457.0,-0.22216362964648734
24216.0,26454.0,-0.20477380223429686
24226.0,26461.0,-0.18900476513766368
24236.0,26462.0,-0.17510387540000502
24246.0,26462.0,-0.1632117444390124
24256.0,26465.0,-0.1533667180971927
24266.0,26471.0,-0.1455099154383143
24277.0,26468.0,-0.139490926010525
24286.0,26469.0,-0.13507466313468802
24296.0,26480.0,-0.13195000760363096
24307.0,26469.0,-0.12974084144414047
24316.0,26467.0,-0.1280201193489187
24326.0,26478.0,-0.1263271172990206
24337.0,26461.0,-0.12418706350989656
24346.0,26469.0,-0.12113199386891016
24356.0,26473.0,-0.11672165320487007
24367.0,26467.0,-0.11056333261419198
24376.0,26467.0,-0.10233006594085094
24386.0,26467.0,-0.09177683127594523
24397.0,26457.0,-0.07875371500731439
24406.0,26469.0,-0.06321421970258224
24416.0,26487.0,-0.045217019313657784
24427.0,26465.0,-0.024921089171899984
24436.0,26478.0,-0.0025760647836766226
24446.0,26493.0,0.021490336135577087
24457.0,26483.0,0.046886889058531014
24466.0,26486.0,0.07317407081747206
24476.0,26500.0,0.09987822398850942
24487.0,26487.0,0.12650397192096213
24496.0,26498.0,0.1525448786162637
24506.0,26498.0,0.17749240822171924
24517.0,26485.0,0.20084346279151957
24526.0,26497.0,0.22210728004572844
24536.0,26498.0,0.24081303465075957
24547.0,26493.0,0.25651931888158025
24556.0,26497.0,0.2688256639237983
24566.0,26505.0,0.27738563000375577
24577.0,26487.0,0.28192100172617063
24586.0,26496.0,0.2822366800626139
24596.0,26485.0,0.27823592410338605
24607.0,26487.0,0.2699354889258827
24616.0,26491.0,0.2574797543826476
24626.0,26493.0,0.24115217244075748
24637.0,26481.0,0.22138121859140544
24646.0,26479.0,0.19873741772048575
24656.0,26470.0,0.17391902795634778
24667.0,26457.0,0.1477258806166956
24676.0,26441.0,0.12102256904711503
24686.0,26437.0,0.09469379730600379
