timestamp_ms,ir_value,ir_filtered
6900.0,27206.0,-0.023053020976886444
6910.0,27222.0,0.0743752998836836
6920.0,27224.0,0.16969743806283302
6930.0,27228.0,0.2607921569464266
6940.0,27240.0,0.3456865883812702
6950.0,27252.0,0.42262863438474074
6961.0,27258.0,0.49015188183305414
6971.0,27260.0,0.5471296164597462
6980.0,27273.0,0.5928136493874936
6990.0,27268.0,0.6268549736125353
7000.0,27268.0,0.6493049665989311
7010.0,27270.0,0.6605978329565491
7020.0,27279.0,0.661517269495835
7030.0,27269.0,0.6531508008012115
7040.0,27268.0,0.6368339740381567
7050.0,27262.0,0.6140869678340034
7060.0,27265.0,0.5865485868622543
7071.0,27269.0,0.5559135742995698
7081.0,27264.0,0.5238769083347204
7090.0,27267.0,0.4920854312447476
7100.0,27266.0,0.462095519682185
7110.0,27260.0,0.4353356579952252
7120.0,27269.0,0.413073407091904
7130.0,27270.0,0.396386453834174
7140.0,27273.0,0.38613637106061044
7150.0,27267.0,0.3829421173171495
7160.0,27264.0,0.3871508086570537
7171.0,27268.0,0.39880659623339654
7181.0,27268.0,0.4176217198906355
7191.0,27275.0,0.44295429512096296
7200.0,27273.0,0.4737957004028676
7210.0,27265.0,0.5087692010504561
7220.0,27273.0,0.5461425239991583
7230.0,27280.0,0.5838592247006147
7240.0,27282.0,0.619593221987267
7250.0,27289.0,0.6508270733860035
7260.0,27294.0,0.6749508165144543
7270.0,27282.0,0.6893766998361925
7281.0,27292.0,0.6916656559068107
7291.0,27293.0,0.6796629227256175
7301.0,27300.0,0.6516400724006102
7310.0,27305.0,0.6064371963279984
7320.0,27303.0,0.5435945486993815
7330.0,27297.0,0.46346079357169495
7340.0,27302.0,0.3672659957043154
7350.0,27308.0,0.25714971513218504
7360.0,27295.0,0.13613503921681805
7370.0,27287.0,0.008039023445442458
7381.0,27258.0,-0.12268644347169709
7391.0,27251.0,-0.2511804297301961
7401.0,27213.0,-0.37245207994857255
7411.0,27184.0,-0.4816910421040503
7420.0,27178.0,-0.5745799758052149
7430.0,27167.0,-0.6475757544794545
7440.0,27164.0,-0.6981291633923743
7450.0,27173.0,-0.7248228026286955
7460.0,27187.0,-0.7274183152889684
7470.0,27202.0,-0.7068150223967645
7480.0,27217.0,-0.6649325265236506
7491.0,27221.0,-0.6045373551818346
7501.0,27231.0,-0.5290357290728195
7511.0,27241.0,-0.44225167421384576
7521.0,27249.0,-0.34820528755484226
7530.0,27261.0,-0.2509029371506912
7540.0,27266.0,-0.1541495792294684
7550.0,27263.0,-0.06139152144580866
7560.0,27271.0,0.024405534117096953
7570.0,27283.0,0.10084279549526434
7580.0,27283.0,0.16614098780656508
7591.0,27289.0,0.21916035092594005
7601.0,27278.0,0.25938851670986035
7611.0,27283.0,0.28689922619319563
7621.0,27284.0,0.30228864145140627
7631.0,27290.0,0.30659742940168827
7640.0,27287.0,0.3012246031532561
7650.0,27278.0,0.28783610925941505
7660.0,27273.0,0.2682710306514779
7670.0,27283.0,0.2444508350089262
7680.0,27273.0,0.21829819399175948
7690.0,27282.0,0.19166927759488384
7701.0,27279.0,0.166299720353699
7711.0,27282.0,0.14376221993968047
7721.0,27291.0,0.12543240087356453
7731.0,27284.0,0.11245830127741337
7741.0,27281.0,0.10572837151620718
7750.0,27282.0,0.1058347542333654
7760.0,27285.0,0.11303224375881228
7770.0,27263.0,0.1271959553249709
7780.0,27262.0,0.14778282655463085
7790.0,27274.0,0.17380575633010176
7801.0,27284.0,0.20383075354088803
7811.0,27286.0,0.2360020928070295
7821.0,27273.0,0.26809257467796993
7831.0,27276.0,0.2975741485194036
7841.0,27279.0,0.3217086239263215
7851.0,27274.0,0.3376616559644849
7860.0,27282.0,0.34264176109098216
7870.0,27289.0,0.33406224893939646
7880.0,27288.0,0.30971971624413164
7890.0,27297.0,0.26797837103865374
7900.0,27296.0,0.20794620150098964
7911.0,27311.0,0.12962728399748683
7921.0,27304.0,0.03403300543810644
7931.0,27289.0,-0.07676573070532572
7941.0,27290.0,-0.19966004728161152
7951.0,27266.0,-0.3306056118073341
7961.0,27257.0,-0.4648052853503785
7970.0,27235.0,-0.5969645281935496
7980.0,27195.0,-0.7216057344147804
7990.0,27160.0,-0.8334192814325672
8000.0,27151.0,-0.927618741291455
8011.0,27135.0,-1.000260655113794
8021.0,27153.0,-1.0484925349176855
8031.0,27148.0,-1.0707059444118914
8041.0,27159.0,-1.0665874126390995
8051.0,27182.0,-1.0370723787333287
8061.0,27190.0,-0.9842156016951852
8071.0,27212.0,-0.9109978527610192
8080.0,27221.0,-0.8210931593128901
8090.0,27226.0,-0.7186213983503221
8100.0,27226.0,-0.6079072754285505
8110.0,27241.0,-0.49325982468045776
8121.0,27240.0,-0.3787795305510406
8131.0,27247.0,-0.2681961103894645
8141.0,27260.0,-0.1647383801804115
8151.0,27256.0,-0.07103666922492735
8161.0,27268.0,0.010942266917670274
8171.0,27269.0,0.07992844080690376
8180.0,27280.0,0.13535126186105806
8190.0,27275.0,0.17731286633294602
8200.0,27279.0,0.20653318666032616
8210.0,27270.0,0.22426909597968367
8221.0,27268.0,0.23221279586601407
8231.0,27273.0,0.23237736665843198
8241.0,27267.0,0.2269781547823976
8251.0,27271.0,0.21831688992035286
8261.0,27265.0,0.20867297207636784
8271.0,27275.0,0.20020494441545078
8281.0,27260.0,0.19486425938444918
8291.0,27272.0,0.1943226818423428
8300.0,27279.0,0.1999142910655056
8310.0,27266.0,0.2125918874337463
8320.0,27270.0,0.23289605132289404
8331.0,27278.0,0.26093594441060475
8341.0,27285.0,0.296382778142642
8351.0,27289.0,0.33847542160446936
8361.0,27284.0,0.3860344178039188
8371.0,27273.0,0.43748099068392093
8381.0,27288.0,0.4908623975475721
8391.0,27282.0,0.5438896230931421
8400.0,27294.0,0.5939933389593525
8410.0,27297.0,0.6384001402259216
8420.0,27279.0,0.6742276158310259
8431.0,27297.0,0.6985964596850803
8441.0,27290.0,0.708759533943921
8451.0,27301.0,0.7022474658560897
8461.0,27302.0,0.6770262504532225
8471.0,27294.0,0.6316577244938324
8481.0,27295.0,0.5654519282861369
8491.0,27300.0,0.4786010734142927
8501.0,27311.0,0.3722848736868806
8510.0,27310.0,0.24873355196512215
8520.0,27300.0,0.1112303294349155
8531.0,27282.0,-0.03596442175788311
8541.0,27263.0,-0.18777739286244172
8551.0,27234.0,-0.3385728278988946
8561.0,27194.0,-0.48247480592192343
8571.0,27163.0,-0.6137351602801181
8581.0,27145.0,-0.7271105514115583
8591.0,27131.0,-0.8182072303584722
8601.0,27134.0,-0.8837560846351219
8611.0,27138.0,-0.9217920796716974
8620.0,27158.0,-0.9317267962373789
8630.0,27160.0,-0.9143170635706223
8641.0,27172.0,-0.8715437673736746
8651.0,27193.0,-0.80642050913396
8661.0,27205.0,-0.7227534693272709
8671.0,27218.0,-0.6248751107934349
8681.0,27223.0,-0.5173749091413573
8691.0,27224.0,-0.40484721250685146
8701.0,27236.0,-0.2916697456677486
8711.0,27238.0,-0.1818195027625387
8721.0,27248.0,-0.07872866223398987
8730.0,27252.0,0.01481835511437954
8741.0,27252.0,0.09674642936032878
8751.0,27253.0,0.16571128461857448
8761.0,27257.0,0.22108500781347096
8771.0,27260.0,0.26291168186642033
8781.0,27265.0,0.2918393891074329
8791.0,27261.0,0.30903329401299234
8801.0,27254.0,0.3160735454962635
8811.0,27248.0,0.3148431488699176
8821.0,27254.0,0.3074139392697567
8830.0,27262.0,0.2959397378153911
8841.0,27258.0,0.28256214700997256
8851.0,27252.0,0.2693290446963276
8861.0,27258.0,0.25812388644743095
8871.0,27255.0,0.25060563822175796
8881.0,27264.0,0.24816011515823755
8891.0,27258.0,0.2518619719879044
8901.0,27258.0,0.2624450780196797
8911.0,27252.0,0.28027983305704585
8921.0,27260.0,0.30535866029481434
8931.0,27271.0,0.337292529310192
8941.0,27278.0,0.3753192902473536
8951.0,27270.0,0.41832023193212764
8961.0,27265.0,0.464839805084831
8971.0,27274.0,0.5131075656453802
8981.0,27276.0,0.5610666752931052
8991.0,27276.0,0.6064140462484964
9001.0,27279.0,0.6466544605369092
9011.0,27273.0,0.6791693430677058
9021.0,27273.0,0.701301438651522
9031.0,27282.0,0.7104574521039937
9041.0,27285.0,0.7042294783117431
9051.0,27287.0,0.6805318518449982
9061.0,27278.0,0.6377453540987434
9071.0,27270.0,0.5748594046101158
9081.0,27281.0,0.4916050648038392
9091.0,27286.0,0.38857279815243734
9101.0,27292.0,0.26730492513854986
9111.0,27290.0,0.13034585130527512
9121.0,27272.0,-0.018770140176650133
9131.0,27262.0,-0.1756098336415898
9141.0,27233.0,-0.3350174290957122
9151.0,27211.0,-0.4913713687810509
9161.0,27175.0,-0.6389057255595983
9171.0,27133.0,-0.7720700367416506
9181.0,27125.0,-0.8858921883439069
9191.0,27108.0,-0.9763037823487576
9201.0,27120.0,-1.0403912037198677
9211.0,27126.0,-1.0765485711836162
9221.0,27138.0,-1.0845253269397954
9231.0,27143.0,-1.0653754022621336
9241.0,27158.0,-1.0213234250894008
9252.0,27175.0,-0.9555667594311661
9261.0,27197.0,-0.8720338897804208
9271.0,27201.0,-0.775122094035882
9281.0,27198.0,-0.6694380436836488
9291.0,27200.0,-0.5595598465343041
9301.0,27219.0,-0.4498293069814906
9311.0,27226.0,-0.344176108179465
9321.0,27232.0,-0.24597552961808847
9331.0,27234.0,-0.1579437682849004
9341.0,27242.0,-0.08207412879733458
9352.0,27240.0,-0.019613865375779357
9361.0,27240.0,0.028921484228868675
9371.0,27246.0,0.06370137939166895
9381.0,27234.0,0.08550780397500643
9391.0,27247.0,0.09564451525648357
9401.0,27248.0,0.09583527477325963
9411.0,27244.0,0.08811644241608375
9421.0,27237.0,0.07472683890577678
9431.0,27239.0,0.057997804037163384
9441.0,27241.0,0.04024852865405326
9452.0,27235.0,0.02369208631375821
9462.0,27240.0,0.010355520428684466
9471.0,27239.0,0.002015515815802783
9481.0,27241.0,0.0001502227786703696
9491.0,27244.0,0.005906735194026615
9501.0,27245.0,0.020082719538430705
9511.0,27254.0,0.04312008907542724
9521.0,27261.0,0.07510786220197667
9531.0,27263.0,0.11579004557203722
9541.0,27261.0,0.16457365517970526
9552.0,27266.0,0.2205336845696002
9562.0,27267.0,0.28241549887393563
9571.0,27273.0,0.34863797664648627
9581.0,27277.0,0.4173013207131044
9591.0,27267.0,0.48620309609930656
9601.0,27283.0,0.5528665884856556
9611.0,27280.0,0.6145867229008866
9621.0,27287.0,0.6684981617489393
9631.0,27295.0,0.7116673529848888
9641.0,27298.0,0.7412071286193215
9652.0,27286.0,0.7544100580876129
9662.0,27293.0,0.7488961897105026
9672.0,27309.0,0.7227718812620659
9681.0,27308.0,0.6747948079317743
9691.0,27316.0,0.6045338926452608
9701.0,27312.0,0.512507005925706
9711.0,27316.0,0.4002782277680141
9721.0,27302.0,0.27049872247336726
9731.0,27310.0,0.12687852188339427
9741.0,27292.0,-0.025919905637976786
9752.0,27258.0,-0.1824711684688383
9762.0,27241.0,-0.3368568282489702
9772.0,27204.0,-0.48300069047156236
9782.0,27179.0,-0.6150422333513748
9791.0,27152.0,-0.7277131116923063
9801.0,27146.0,-0.8166787621920246
9811.0,27146.0,-0.878809706270475
9821.0,27150.0,-0.9123564635444694
9831.0,27168.0,-0.9170158459106659
9841.0,27184.0,-0.8938905253659797
9852.0,27191.0,-0.8453554673143912
9862.0,27202.0,-0.7748521716990515
9872.0,27225.0,-0.6866334232712151
9882.0,27228.0,-0.5854798764315136
9891.0,27252.0,-0.4764088379858817
9901.0,27257.0,-0.3643948769618928
9911.0,27253.0,-0.2541195304623202
9921.0,27266.0,-0.14976241564899503
9931.0,27274.0,-0.05483933038508236
9941.0,27282.0,0.027911693780633892
9952.0,27284.0,0.09659583611050812
9962.0,27287.0,0.15017750961760892
9972.0,27277.0,0.18844820684868996
9982.0,27275.0,0.21195175268958028
9992.0,27278.0,0.22187719722442528
10001.0,27284.0,0.2199317993469883
10011.0,27265.0,0.20820472537087945
10021.0,27269.0,0.18902936084755362
10031.0,27279.0,0.16485205376685594
10041.0,27278.0,0.1381146717377768
10051.0,27274.0,0.111153977203912
10062.0,27271.0,0.08611649145674133
10072.0,27264.0,0.06488796324534706
10082.0,27274.0,0.04903954302641536
10092.0,27266.0,0.03979375315152141
10102.0,27275.0,0.03801149032198439
10111.0,27289.0,0.04419845155882286
10121.0,27287.0,0.05852626819656795
10131.0,27280.0,0.0808608041098196
10141.0,27289.0,0.11079058626168421
10151.0,27293.0,0.14765263921929206
10162.0,27299.0,0.1905559554858025
10172.0,27296.0,0.23840206984787027
10182.0,27300.0,0.2899014920635167
10192.0,27304.0,0.34358654119510595
10202.0,27310.0,0.39782321106103374
10211.0,27310.0,0.4508248389864131
10221.0,27312.0,0.5006695106155238
10231.0,27307.0,0.5453233928105653
10241.0,27317.0,0.5826736708875064
10251.0,27307.0,0.6105757088550627
10262.0,27318.0,0.6269183143312496
10272.0,27323.0,0.6297089466219205
10282.0,27316.0,0.6171776135943777
10292.0,27322.0,0.5878948412017971
10302.0,27320.0,0.5408973240712683
10312.0,27330.0,0.475814121090955
10321.0,27327.0,0.3929840569549397
10331.0,27325.0,0.2935517697025609
10341.0,27321.0,0.1795285319014395
10351.0,27322.0,0.053805548120962006
10362.0,27327.0,-0.0798903532099566
10372.0,27305.0,-0.2171078067310271
10382.0,27282.0,-0.35285581283425094
10392.0,27249.0,-0.4818612536173813
10402.0,27210.0,-0.5988833018008987
10412.0,27197.0,-0.699053985504824
10421.0,27185.0,-0.778205393131145
10431.0,27185.0,-0.8331454578486721
10441.0,27185.0,-0.861854587870425
10451.0,27204.0,-0.8635887755356723
10462.0,27217.0,-0.8388872507753201
10472.0,27226.0,-0.7894937245561421
10482.0,27237.0,-0.7182081476091468
10492.0,27247.0,-0.6286883506929336
10502.0,27261.0,-0.525219276016863
10512.0,27273.0,-0.4124654283632529
10521.0,27285.0,-0.2952212225650372
10531.0,27290.0,-0.17817308335378274
10541.0,27305.0,-0.06568519922530154
10551.0,27310.0,0.03838202704868669
10562.0,27313.0,0.1308143744558148
10572.0,27318.0,0.2091430423296908
10582.0,27320.0,0.27169988903508097
10592.0,27322.0,0.3176308904816996
10602.0,27318.0,0.3468719396193728
10612.0,27321.0,0.3600924125374487
10622.0,27320.0,0.35861304482450135
10631.0,27329.0,0.3443045727995115
10641.0,27316.0,0.31947177047619757
10651.0,27307.0,0.2867260020390459
10662.0,27313.0,0.24885085694436684
10672.0,27298.0,0.20866841588579665
10682.0,27300.0,0.16891445906515412
10692.0,27307.0,0.13212927586206172
10702.0,27295.0,0.10056819616792402
10712.0,27301.0,0.07613303826532115
10722.0,27304.0,0.06032377771090913
10732.0,27313.0,0.05420883888668844
10741.0,27305.0,0.058410425635181146
10751.0,27303.0,0.07309968695736133
10762.0,27310.0,0.09799841239001093
10772.0,27312.0,0.13238752614642305
10782.0,27318.0,0.17512358451474513
10792.0,27320.0,0.22466281715035727
10802.0,27323.0,0.2790911508308536
10812.0,27315.0,0.3361595268395985
10822.0,27321.0,0.39332629336582897
10832.0,27323.0,0.4478112458927261
10841.0,27329.0,0.49666661527277667
10851.0,27331.0,0.5368679742491742
10862.0,27323.0,0.5654249135291702
10872.0,27337.0,0.5795100033990277
10882.0,27338.0,0.5766041491760876
10892.0,27345.0,0.5546539535221913
10902.0,27340.0,0.5122321905493662
10912.0,27343.0,0.4486895210824978
10922.0,27353.0,0.3642854142894045
10932.0,27351.0,0.2602863643917836
10942.0,27359.0,0.13901824583973493
10951.0,27355.0,0.003858523991648617
10962.0,27329.0,-0.14084495269420444
10972.0,27319.0,-0.2899377533667775
10982.0,27275.0,-0.43770651859252413
10992.0,27242.0,-0.5781996545374634
11002.0,27216.0,-0.70559551490268
11012.0,27195.0,-0.8145801710945403
11022.0,27192.0,-0.9006931936806369
11032.0,27188.0,-0.9606061340412169
11042.0,27191.0,-0.9923103420371148
11051.0,27209.0,-0.9952036038610456
11062.0,27222.0,-0.9700767449505227
11072.0,27219.0,-0.9190113322779517
11082.0,27237.0,-0.8452056720755199
11092.0,27248.0,-0.7527467521702573
11102.0,27269.0,-0.6463444178936627
11112.0,27280.0,-0.5310452597379153
11122.0,27284.0,-0.4119457485206533
11132.0,27304.0,-0.2939231453160845
11142.0,27306.0,-0.1813987430291472
11152.0,27321.0,-0.07814421784075112
11162.0,27321.0,0.012860605326394286
11172.0,27317.0,0.08951317337773781
11182.0,27317.0,0.15061619599971365
11192.0,27320.0,0.1958534650411247
11202.0,27319.0,0.22572283129726384
11212.0,27325.0,0.24143602180494572
11222.0,27318.0,0.24479313617381462
11232.0,27309.0,0.23803847689098315
11242.0,27304.0,0.22370558364282456
11252.0,27304.0,0.20446219001351515
11262.0,27305.0,0.18296693218907953
11272.0,27308.0,0.16174681929654927
11282.0,27306.0,0.1430994936839405
11292.0,27311.0,0.12902024703935322
11302.0,27316.0,0.12115155419598422
11312.0,27314.0,0.12075145821478266
11322.0,27319.0,0.12867603534472627
11332.0,27314.0,0.1453713500197977
11342.0,27313.0,0.17087214483994545
11352.0,27321.0,0.2048070362673136
11363.0,27331.0,0.24641135970800274
11372.0,27334.0,0.2945473048006438
11382.0,27317.0,0.3477283274743207
11392.0,27334.0,0.404145732436965
11402.0,27337.0,0.46169977195065165
11412.0,27341.0,0.5180394262117605
11422.0,27339.0,0.5706122604450791
11432.0,27331.0,0.616723882697047
11442.0,27335.0,0.6536087874108848
11452.0,27340.0,0.6785174056357837
11463.0,27342.0,0.6888235965487053
11472.0,27352.0,0.6821523213431459
11482.0,27340.0,0.6565222998252453
11492.0,27349.0,0.6104958666767291
11502.0,27350.0,0.5433274209719935
11512.0,27363.0,0.45510053993350225
11522.0,27360.0,0.34684149077613863
11532.0,27365.0,0.22059512792177438
11542.0,27358.0,0.0794487542882179
11552.0,27353.0,-0.07251028122879116
11563.0,27329.0,-0.2303165029159224
11572.0,27299.0,-0.38833692407303444
11582.0,27253.0,-0.5405691892867699
11592.0,27200.0,-0.681008726310001
11602.0,27194.0,-0.8040468236164466
11612.0,27177.0,-0.9048496385717489
11622.0,27176.0,-0.9796716573629916
11632.0,27190.0,-1.0260728510348052
11642.0,27193.0,-1.043026814558882
11652.0,27202.0,-1.0309218724454636
11663.0,27220.0,-0.9914670589003607
11673.0,27228.0,-0.9275201818192964
11682.0,27244.0,-0.8428580038061909
11692.0,27267.0,-0.741910329086205
11702.0,27264.0,-0.6294803753066796
11712.0,27287.0,-0.5104728138538208
11722.0,27276.0,-0.38964721852666095
11732.0,27290.0,-0.2714085044339585
11742.0,27295.0,-0.15963942415652263
11752.0,27305.0,-0.05757579199647354
11762.0,27306.0,0.03227607289392282
11773.0,27304.0,0.10818020518230481
11783.0,27313.0,0.1691724153676141
11792.0,27314.0,0.215027227415127
11802.0,27308.0,0.24619628985246178
11812.0,27311.0,0.26372404562123986
11822.0,27306.0,0.26914723886920017
11832.0,27309.0,0.26438590642120385
11842.0,27306.0,0.25163301284439127
11852.0,27311.0,0.23324803235890218
11862.0,27309.0,0.21165749079665472
11873.0,27302.0,0.18926344729026384
11883.0,27302.0,0.1683602991201
11893.0,27301.0,0.15106143104342165
11902.0,27313.0,0.13923791322460174
11912.0,27309.0,0.13446943467637004
11922.0,27301.0,0.13800444078423016
11932.0,27309.0,0.15072603542439608
11942.0,27304.0,0.17312317460902374
11952.0,27312.0,0.20526908153831894
11962.0,27318.0,0.2468084169049496
11973.0,27311.0,0.29695317286264794
11983.0,27318.0,0.35448676460460604
11993.0,27322.0,0.4177771710066372
12003.0,27324.0,0.4848015433401169
12012.0,27336.0,0.5531843645775215
12022.0,27331.0,0.6202496373756501
12032.0,27331.0,0.6830867010354584
12042.0,27334.0,0.7386302624270393
12052.0,27348.0,0.7837568871389865
12062.0,27348.0,0.8153992159238127
12073.0,27344.0,0.8306751184931155
12083.0,27339.0,0.827026222443132
12093.0,27345.0,0.802361287734555
12103.0,27351.0,0.7552013402853849
12112.0,27356.0,0.6848213935060152
12122.0,27352.0,0.5913791341419228
12132.0,27341.0,0.47601788036162973
12142.0,27352.0,0.3409305977047005
12152.0,27344.0,0.1893720189241262
12162.0,27335.0,0.025605621355725746
12172.0,27315.0,-0.14522685239686073
12183.0,27291.0,-0.31732013564735284
12193.0,27245.0,-0.4845003156547321
12203.0,27211.0,-0.6405813388233685
12213.0,27185.0,-0.7797501003869822
12222.0,27176.0,-0.8969379289841959
12232.0,27164.0,-0.9881375776255819
12242.0,27161.0,-1.0506351161450405
12252.0,27176.0,-1.0831390042100135
12262.0,27179.0,-1.0858005953358207
12272.0,27198.0,-1.060131575803706
12283.0,27221.0,-1.0088336833848621
12293.0,27229.0,-0.9355633779478454
12303.0,27236.0,-0.8446583696265064
12313.0,27245.0,-0.7408521234727252
12323.0,27261.0,-0.6289968169037835
12332.0,27271.0,-0.5138095923717361
12342.0,27272.0,-0.3996544170924742
12352.0,27271.0,-0.29036954514533997
12362.0,27277.0,-0.18914515926165498
12372.0,27281.0,-0.09844910913796955
12383.0,27296.0,-0.019995185923821688
12393.0,27292.0,0.04525072202444345
12403.0,27284.0,0.09702931051666554
12413.0,27293.0,0.1357152891415739
12423.0,27282.0,0.1622214602055945
12433.0,27295.0,0.17788974739331911
12442.0,27294.0,0.18437817229121387
12452.0,27283.0,0.18354964532118215
12462.0,27288.0,0.1773664681475098
12472.0,27292.0,0.16779483432353692
12483.0,27285.0,0.1567237421878992
12493.0,27294.0,0.14590051260559414
12503.0,27288.0,0.13688266387308734
12513.0,27287.0,0.13100496393066932
12523.0,27289.0,0.12936055684487435
12533.0,27291.0,0.13279552914700785
12542.0,27294.0,0.1419160339366853
12552.0,27306.0,0.15710543114824185
12562.0,27293.0,0.178546813504336
12572.0,27310.0,0.20624549116979787
12583.0,27305.0,0.24004720819392436
12593.0,27319.0,0.27964932740187254
12603.0,27318.0,0.32460220781283183
12613.0,27309.0,0.3742979330136517
12623.0,27307.0,0.42794620260271077
12633.0,27318.0,0.48454253320346125
12643.0,27323.0,0.5428374895843328
12652.0,27330.0,0.6013137189859595
12662.0,27320.0,0.6581730494553546
12672.0,27316.0,0.7113348588483307
12683.0,27321.0,0.7584505482049776
12693.0,27330.0,0.7969423978779081
12703.0,27331.0,0.8240732864754551
12713.0,27325.0,0.8370479575281286
12723.0,27322.0,0.8331426134965916
12733.0,27331.0,0.8098597568480851
12743.0,27334.0,0.7651051164719878
12752.0,27342.0,0.6973792223351212
12762.0,27341.0,0.6059694936454615
12772.0,27334.0,0.4911240915797988
12783.0,27340.0,0.3541883005440584
12793.0,27330.0,0.19768627998427304
12803.0,27338.0,0.025332859397025505
12813.0,27316.0,-0.1580389690207728
12823.0,27295.0,-0.34664645679362016
12833.0,27251.0,-0.5340248866442732
12843.0,27202.0,-0.7133833617400367
12853.0,27184.0,-0.8780189235025457
12862.0,27159.0,-1.021745474497518
12872.0,27136.0,-1.1392914102219203
12883.0,27129.0,-1.2266268044517907
12893.0,27141.0,-1.2811907310567248
12903.0,27166.0,-1.3020010896550809
12913.0,27164.0,-1.2896456128369496
12923.0,27182.0,-1.2461688221320306
12933.0,27185.0,-1.1748775079161322
12943.0,27210.0,-1.080086916744383
12953.0,27225.0,-0.9668281427805456
12962.0,27240.0,-0.8405380753206592
12972.0,27253.0,-0.7067545740068086
12983.0,27252.0,-0.5708378372762661
12993.0,27261.0,-0.4377332172394712
13003.0,27261.0,-0.31178286040463316
13013.0,27280.0,-0.19658678921411527
13023.0,27287.0,-0.09491125983931864
13033.0,27281.0,-0.008643219180777997
13043.0,27293.0,0.061209572003212205
13053.0,27287.0,0.11447557048158802
13063.0,27291.0,0.15173984153482495
13072.0,27294.0,0.17423560806064253
13083.0,27276.0,0.18371509157063368
13093.0,27283.0,0.1823086420581247
13103.0,27282.0,0.1723827663436313
13113.0,27289.0,0.15640739391026073
13123.0,27281.0,0.1368387141225814
13133.0,27286.0,0.11601931529405125
13143.0,27278.0,0.09609574764452414
13153.0,27276.0,0.07895433948056337
13163.0,27285.0,0.06617691099446565
13172.0,27281.0,0.059017492202904163
13183.0,27289.0,0.05839875079197561
13193.0,27276.0,0.06492436006768251
13203.0,27290.0,0.07890342636733129
13213.0,27302.0,0.10038430026886355
13223.0,27301.0,0.12919398079898753
13233.0,27306.0,0.16497594580601532
13243.0,27299.0,0.20721845536002212
13253.0,27307.0,0.2552692986088434
13263.0,27312.0,0.30833783423210387
13273.0,27309.0,0.36548721839773646
13283.0,27316.0,0.42561951692963
13293.0,27319.0,0.48745656065942095
13303.0,27317.0,0.5495202663179973
13313.0,27317.0,0.6101168507209811
13323.0,27321.0,0.6673304001883706
13333.0,27336.0,0.7190319664936493
13343.0,27326.0,0.7629084885514934
13353.0,27320.0,0.7965126020988532
13363.0,27324.0,0.8173342100922751
13373.0,27331.0,0.8228971372744225
13383.0,27329.0,0.8108834958011133
13393.0,27335.0,0.7792830731799723
13403.0,27328.0,0.726559758737534
13413.0,27338.0,0.6518244558942132
13423.0,27340.0,0.5550023186372371
13433.0,27349.0,0.4369792669927615
13443.0,27341.0,0.2997089809348465
13453.0,27334.0,0.14625991086883736
13463.0,27325.0,-0.019215377931317158
13473.0,27306.0,-0.19159977147350662
13484.0,27281.0,-0.3650232324074131
13493.0,27244.0,-0.533160055130778
13503.0,27202.0,-0.6895933351891829
13513.0,27177.0,-0.8282149229386124
13523.0,27158.0,-0.9436189738193632
13533.0,27162.0,-1.0314457933521892
13543.0,27159.0,-1.0886417411096183
13553.0,27163.0,-1.1136160517309297
13563.0,27172.0,-1.1062895532123016
13573.0,27196.0,-1.068040128314256
13584.0,27210.0,-1.001557546660765
13593.0,27222.0,-0.9106278606071756
13603.0,27226.0,-0.7998719999188089
13613.0,27239.0,-0.6744614122603338
13623.0,27260.0,-0.539828071578027
13633.0,27270.0,-0.4013825594995324
13643.0,27285.0,-0.264254012158834
13653.0,27288.0,-0.13306597221952915
13663.0,27296.0,-0.011759315426609131
13673.0,27303.0,0.09653179693264494
13684.0,27303.0,0.18954991465615656
13693.0,27308.0,0.2659326172652971
13703.0,27305.0,0.3251840360123872
13713.0,27302.0,0.3676068323087171
13723.0,27306.0,0.39420400437126446
13733.0,27309.0,0.40656086284618714
13743.0,27306.0,0.40671625366302866
13753.0,27312.0,0.39702929562507067
13763.0,27303.0,0.3800457102727089
13773.0,27299.0,0.35836729963889474
13784.0,27291.0,0.33452924128418465
13794.0,27297.0,0.31089177802205964
13803.0,27295.0,0.28955314164980933
13813.0,27294.0,0.2722877470868494
13823.0,27295.0,0.26050998122199515
13833.0,27303.0,0.2552617440163989
13843.0,27304.0,0.257220474550543
13853.0,27313.0,0.2667222222230236
13863.0,27326.0,0.28379198742394984
13873.0,27306.0,0.3081722135321475
13884.0,27311.0,0.3393417091710355
13894.0,27304.0,0.3765230005864173
13904.0,27315.0,0.4186829160196327
13913.0,27316.0,0.46453340167941465
13923.0,27313.0,0.5125370619975247
13933.0,27309.0,0.5609196547426578
13943.0,27321.0,0.6076926064268025
13953.0,27328.0,0.6506898334446696
13963.0,27333.0,0.6876207523138732
13973.0,27342.0,0.7161363572712995
13984.0,27328.0,0.7339020692468966
13994.0,27329.0,0.738672013555145
14004.0,27314.0,0.7283636924532703
14013.0,27315.0,0.7011369080331564
14023.0,27315.0,0.6554828849487432
14033.0,27314.0,0.5903272345379391
14043.0,27310.0,0.505145002655182
14053.0,27307.0,0.4000808496648055
14063.0,27316.0,0.27606433325243085
14073.0,27323.0,0.1349074603333196
14084.0,27312.0,-0.02063280369518032
14094.0,27305.0,-0.1868476768237019
14104.0,27291.0,-0.3591434173645157
14114.0,27280.0,-0.5321921338598441
14123.0,27239.0,-0.7001678048420003
14133.0,27193.0,-0.857058620959486
14143.0,27161.0,-0.9970323796961771
14153.0,27148.0,-1.1148161748946082
14163.0,27135.0,-1.2060448690636594
14173.0,27143.0,-1.2675395929688222
14184.0,27145.0,-1.2974923348481038
14194.0,27144.0,-1.2955477204806918
14204.0,27167.0,-1.2627841248680713
14214.0,27177.0,-1.2016032737667663
14223.0,27200.0,-1.115543413891672
14233.0,27206.0,-1.0090368835807297
14243.0,27221.0,-0.88713567546572
14253.0,27226.0,-0.7552267018760469
14263.0,27234.0,-0.6187536567815177
14273.0,27249.0,-0.48295719447873847
14284.0,27265.0,-0.35264174299731316
14294.0,27278.0,-0.23197695312952607
14304.0,27275.0,-0.12434315898941219
14314.0,27276.0,-0.03222914899712376
14324.0,27277.0,0.04281511489106702
14333.0,27288.0,0.10017502667583825
14343.0,27286.0,0.14012425539427564
14353.0,27282.0,0.16374004527632013
14363.0,27282.0,0.17278601650543512
14373.0,27277.0,0.16956930216445412
14384.0,27278.0,0.15678094984782542
14394.0,27272.0,0.1373288072394199
14404.0,27259.0,0.11417143855765771
14414.0,27261.0,0.09016187322197024
14424.0,27254.0,0.06791104446488702
14434.0,27265.0,0.04968011903554705
14443.0,27262.0,0.03730703107828734
14453.0,27262.0,0.03216724859855451
14463.0,27263.0,0.035165325365724996
14473.0,27270.0,0.046753133921420796
14484.0,27274.0,0.06697060110340523
14494.0,27287.0,0.09550310557562927
14504.0,27285.0,0.13174713228009782
14514.0,27279.0,0.17487474907311382
14524.0,27290.0,0.2238899293824641
14534.0,27305.0,0.27767400375817436
14543.0,27305.0,0.335018621410829
14553.0,27291.0,0.3946423913145738
14563.0,27288.0,0.455188713861826
14573.0,27302.0,0.5152096130795911
14584.0,27304.0,0.5731459823374497
14594.0,27301.0,0.6273126861475135
14604.0,27303.0,0.6758922493850232
14614.0,27295.0,0.7169400658495776
14624.0,27299.0,0.7484063597255884
14634.0,27293.0,0.7681815104689718
14643.0,27306.0,0.7741701910019378
14653.0,27298.0,0.7643961850571934
14663.0,27307.0,0.7371348425391697
14673.0,27303.0,0.6910658535812028
14684.0,27308.0,0.6254361885447768
14694.0,27321.0,0.5402205497420308
14704.0,27325.0,0.4362630259639004
14714.0,27315.0,0.31537928663388
14724.0,27305.0,0.1803974505053606
14734.0,27296.0,0.03512102510417844
14744.0,27283.0,-0.11579363406020508
14753.0,27253.0,-0.2670448296956825
14763.0,27218.0,-0.4129698915628012
14773.0,27179.0,-0.5478875865304311
14784.0,27161.0,-0.6664668077928041
14794.0,27149.0,-0.7640811828976797
14804.0,27153.0,-0.8371108696157639
14814.0,27146.0,-0.883163965165676
14824.0,27140.0,-0.9012037619496678
14834.0,27166.0,-0.8915780431663697
14844.0,27172.0,-0.855953245391948
14853.0,27181.0,-0.7971639415560576
14863.0,27203.0,-0.7189956836214096
14873.0,27210.0,-0.6259228549494628
14884.0,27228.0,-0.5228236954876871
14894.0,27227.0,-0.4146940684539707
14904.0,27240.0,-0.3063788093029828
14914.0,27246.0,-0.20233460398537276
14924.0,27250.0,-0.10643365898592191
14934.0,27251.0,-0.021814157679159646
14944.0,27257.0,0.04921948305859683
14954.0,27260.0,0.10524664136623237
14963.0,27258.0,0.14573286870811814
14973.0,27258.0,0.17098764156961893
14984.0,27243.0,0.18208221145047399
14994.0,27250.0,0.18073537301691595
15004.0,27244.0,0.16917775325310064
15014.0,27241.0,0.15000534041868513
15024.0,27241.0,0.12603072209110966
15034.0,27236.0,0.10013838050496386
15044.0,27230.0,0.07514934450996798
15054.0,27233.0,0.05370002850302685
15064.0,27230.0,0.03813966144462188
15073.0,27234.0,0.030449362739957717
15084.0,27232.0,0.03218361811818332
15094.0,27231.0,0.04443309653676572
15104.0,27231.0,0.06780744269107791
15114.0,27247.0,0.10243718332911794
15124.0,27255.0,0.1479928959264291
15134.0,27255.0,0.2037162348282164
15144.0,27251.0,0.2684547094305494
15154.0,27264.0,0.3406942716281509
15164.0,27270.0,0.4185885213019879
15173.0,27261.0,0.4999854489647715
15184.0,27272.0,0.5824526658560486
15194.0,27264.0,0.6633038643417676
15204.0,27268.0,0.7396321997575739
15214.0,27275.0,0.8083576026019598
15224.0,27278.0,0.8662939977764512
15234.0,27280.0,0.9102393534770779
15244.0,27277.0,0.9370880376638706
15254.0,27281.0,0.9439632713123952
15264.0,27281.0,0.9283669671220939
15274.0,27285.0,0.8883426408150102
15284.0,27291.0,0.8226436574535869
15294.0,27282.0,0.730894955212322
15304.0,27285.0,0.6137334284811686
15314.0,27284.0,0.47291148432227287
15324.0,27275.0,0.3113488165269967
15334.0,27276.0,0.13311786705779416
15344.0,27253.0,-0.05665020353803169
15354.0,27231.0,-0.25194805900068906
15364.0,27190.0,-0.4461638620038174
15374.0,27147.0,-0.6324296104575875
15384.0,27120.0,-0.8040184001063669
15394.0,27095.0,-0.9547510389536259
15404.0,27078.0,-1.079369213724085
15414.0,27079.0,-1.1738381331193157
15424.0,27080.0,-1.2355526599037128
15434.0,27091.0,-1.2634344086805038
15444.0,27108.0,-1.2579209801148676
15454.0,27108.0,-1.2208598942316093
15464.0,27129.0,-1.15532681847165
15474.0,27136.0,-1.06538990590533
15485.0,27148.0,-0.955841380178977
15494.0,27168.0,-0.8319161863366923
15504.0,27166.0,-0.6990159384076436
15514.0,27167.0,-0.5624535516521613
15524.0,27181.0,-0.4272285225684147
15534.0,27191.0,-0.29783638712436844
15544.0,27202.0,-0.17811314643592804
15554.0,27203.0,-0.07111696024083312
15564.0,27207.0,0.020949679580646204
15574.0,27216.0,0.09677630560563508
15585.0,27214.0,0.15594129587003883
15594.0,27224.0,0.19887221799843627
15604.0,27223.0,0.22677250817025413
15614.0,27208.0,0.24151733175718795
15624.0,27221.0,0.24552317765739448
15634.0,27207.0,0.24159871236636665
15644.0,27221.0,0.23278572515692147
15654.0,27206.0,0.22219738781212367
15664.0,27198.0,0.21285934073978194
15674.0,27204.0,0.2075600048751543
15685.0,27198.0,0.2087186034035777
15695.0,27211.0,0.21827880642072273
15704.0,27216.0,0.23763173304109925
15714.0,27220.0,0.2675668138037413
15724.0,27212.0,0.30824559006723823
15734.0,27225.0,0.35919391306892434
15744.0,27227.0,0.41931103126255975
15754.0,27230.0,0.48689562755643173
15764.0,27239.0,0.5596879861142088
15774.0,27226.0,0.6349269838641427
15785.0,27236.0,0.7094222324814744
15795.0,27243.0,0.7796442680829049
15804.0,27250.0,0.8418360600365021
15814.0,27252.0,0.8921456892693113
15824.0,27241.0,0.9267762071866079
15834.0,27241.0,0.9421487322692456
15844.0,27246.0,0.9350778739276776
15854.0,27258.0,0.9029592738995244
15864.0,27255.0,0.8439640454759095
15874.0,27253.0,0.7572273892078023
15885.0,27256.0,0.643014558911625
15895.0,27259.0,0.5028473437205245
15905.0,27262.0,0.33957420528273113
15914.0,27254.0,0.15736556534364987
15924.0,27235.0,-0.038384227385431444
15934.0,27195.0,-0.2412608317899511
15944.0,27157.0,-0.44413901398302297
15954.0,27114.0,-0.6395779466258935
15964.0,27088.0,-0.8202668145128157
15974.0,27062.0,-0.979475449767763
15985.0,27040.0,-1.111464768273729
15995.0,27039.0,-1.2118183996600886
16005.0,27050.0,-1.2776670808350987
16015.0,27062.0,-1.3077911666507807
16024.0,27076.0,-1.3026031325602112
16034.0,27090.0,-1.2640262340362898
16044.0,27095.0,-1.1952932047620457
16054.0,27115.0,-1.1006902018254694
16064.0,27134.0,-0.9852693205391008
16074.0,27134.0,-0.8545512590761737
16085.0,27147.0,-0.7142380363408031
16095.0,27141.0,-0.5699509949580557
16105.0,27161.0,-0.4270017776575324
16115.0,27165.0,-0.2901978844747187
16124.0,27181.0,-0.16368275781006777
16134.0,27186.0,-0.05081182191834691
16144.0,27183.0,0.045932961101385006
16154.0,27203.0,0.12498878474736796
16164.0,27198.0,0.18571911445782352
16174.0,27200.0,0.2283843433228836
16185.0,27207.0,0.2540782222347955
16195.0,27202.0,0.2646333684638811
16205.0,27204.0,0.2625002371132386
16215.0,27192.0,0.2506045313390608
16225.0,27202.0,0.23218936280178556
16234.0,27197.0,0.21064967584889585
16244.0,27181.0,0.18936586512478346
16254.0,27180.0,0.171543137945821
16264.0,27184.0,0.16006522788619015
16274.0,27194.0,0.1573720494522438
16285.0,27194.0,0.1653666228601787
16295.0,27202.0,0.1853499261051012
16305.0,27194.0,0.21797886447122503
16315.0,27208.0,0.2632434669584424
16325.0,27209.0,0.3204618258544882
16334.0,27219.0,0.3882921310274533
16344.0,27219.0,0.46476022653470767
16354.0,27218.0,0.5473008804188202
16364.0,27224.0,0.6328129753392154
16374.0,27227.0,0.7177316975685726
16385.0,27233.0,0.7981219244621025
16395.0,27244.0,0.8697955267676153
16405.0,27236.0,0.9284525159002424
16415.0,27240.0,0.9698439434060747
16425.0,27247.0,0.989954346914132
16435.0,27245.0,0.9852015192279321
16444.0,27257.0,0.952648780753358
16454.0,27246.0,0.8902205626716894
16464.0,27255.0,0.7969086820933833
16474.0,27261.0,0.672954791550096
16485.0,27267.0,0.5199921250552715
16495.0,27260.0,0.34112580278771354
16505.0,27260.0,0.14092857779812135
16515.0,27230.0,-0.07466835111380263
16525.0,27198.0,-0.2986012589104147
16535.0,27148.0,-0.523014118757097
16544.0,27113.0,-0.7396922666950885
16554.0,27076.0,-0.9405513686863813
16564.0,27038.0,-1.1181334425632719
16574.0,27035.0,-1.2660601608409736
16585.0,27025.0,-1.3793994072370228
16595.0,27034.0,-1.4549135749493425
16605.0,27048.0,-1.49117511716198
16615.0,27061.0,-1.4885516082448076
16625.0,27067.0,-1.4490755472605792
16635.0,27099.0,-1.3762218101458106
16645.0,27111.0,-1.2746189592305976
16654.0,27126.0,-1.149722504751983
16664.0,27141.0,-1.0074785934189305
16674.0,27139.0,-0.8540028725159281
16685.0,27156.0,-0.6952918888962445
16695.0,27158.0,-0.536976354283045
16705.0,27179.0,-0.3841197245606795
16715.0,27175.0,-0.24106299216295665
16725.0,27185.0,-0.11131563108494703
16735.0,27201.0,0.0025091375903131736
16745.0,27203.0,0.09871821816099265
16754.0,27207.0,0.176524686715146
16764.0,27218.0,0.23599828668554598
16774.0,27211.0,0.27798352270271065
16785.0,27215.0,0.30398997088582186
16795.0,27207.0,0.31606101743332893
16805.0,27214.0,0.3166292737916274
16815.0,27212.0,0.30836784099709463
16825.0,27210.0,0.29404517611616915
16835.0,27196.0,0.2763893160281612
16845.0,27202.0,0.2579673276716588
16855.0,27207.0,0.24108720301928646
16864.0,27208.0,0.22772791443174498
16874.0,27207.0,0.21949835555625843
16885.0,27196.0,0.2176221432956771
16895.0,27215.0,0.22294575391016452
16905.0,27218.0,0.23596881563285044
16915.0,27232.0,0.2568928256553272
16925.0,27232.0,0.28567919369914485
16935.0,27233.0,0.3221047319931279
16945.0,27237.0,0.3658049550789301
16955.0,27235.0,0.4163005014006126
16965.0,27246.0,0.47300629049800447
16974.0,27250.0,0.5352250284259906
16985.0,27254.0,0.6021265924603976
16995.0,27246.0,0.6727145731549065
17005.0,27257.0,0.7457831902249251
17015.0,27256.0,0.819871320256313
17025.0,27264.0,0.8932220816278627
17035.0,27264.0,0.9637552765913864
17045.0,27263.0,1.0290583886661253
17055.0,27266.0,1.0864015786066976
17065.0,27268.0,1.1327825291578926
17074.0,27279.0,1.1650060826024295
17085.0,27275.0,1.1798002623594497
17095.0,27263.0,1.1739661833652928
17105.0,27279.0,1.1445576552175256
17115.0,27277.0,1.0890861157422975
17125.0,27277.0,1.0057434364140518
17135.0,27289.0,0.893628995752914
17145.0,27285.0,0.7529621456087108
17155.0,27285.0,0.5852578929014174
17165.0,27285.0,0.3934420734285161
17175.0,27284.0,0.1818831008146297
17185.0,27276.0,-0.043680421683150915
17195.0,27225.0,-0.2763329368598448
17205.0,27172.0,-0.5083017783627988
17215.0,27134.0,-0.7313881138712148
17225.0,27095.0,-0.9374692983628407
17235.0,27067.0,-1.119018749373448
17245.0,27052.0,-1.2695892199425491
17255.0,27034.0,-1.384213568812064
17265.0,27046.0,-1.459688794342827
17275.0,27052.0,-1.4947227895284907
17286.0,27074.0,-1.489938687528765
17295.0,27095.0,-1.4477472984347304
17305.0,27107.0,-1.3721109281024124
17315.0,27130.0,-1.268229240859905
17325.0,27139.0,-1.1421793253910477
17335.0,27161.0,-1.00053959977223
17345.0,27172.0,-0.850023278728092
17355.0,27167.0,-0.6971427350021036
17365.0,27183.0,-0.547919964808795
17375.0,27190.0,-0.4076505197879216
17386.0,27197.0,-0.2807223387800939
17395.0,27210.0,-0.17048925722080085
17405.0,27217.0,-0.07919935489977023
17415.0,27211.0,-0.007978286493580337
17425.0,27226.0,0.043133585918527236
17435.0,27213.0,0.07509416796097164
17445.0,27223.0,0.08972926534902555
17455.0,27212.0,0.0895670167629886
17465.0,27211.0,0.07764650649867709
17475.0,27207.0,0.057311164870476515
17486.0,27195.0,0.03199855194510803
17496.0,27193.0,0.005038817798601788
17505.0,27191.0,-0.020525570375073604
17515.0,27187.0,-0.04208725409009519
17525.0,27189.0,-0.0575799297178947
17535.0,27195.0,-0.06553806777919062
17545.0,27200.0,-0.06510977356055243
17555.0,27207.0,-0.0560267389365362
17565.0,27209.0,-0.03853934027688118
17575.0,27202.0,-0.013326702482808749
17586.0,27221.0,0.0186096472889963
17596.0,27221.0,0.05606190472835216
17605.0,27235.0,0.09773480907586118
17615.0,27234.0,0.14235763128782275
17625.0,27229.0,0.18877923815376577
17635.0,27240.0,0.23603936269607628
17645.0,27233.0,0.2834140915450539
17655.0,27250.0,0.3304366762747068
17665.0,27253.0,0.37689481952729836
17675.0,27249.0,0.4228040081382108
17686.0,27250.0,0.46835609215979224
17696.0,27255.0,0.5138450615565395
17706.0,27256.0,0.5595757063344584
17715.0,27253.0,0.6057622439368481
17725.0,27257.0,0.6524239370251977
17735.0,27250.0,0.699285523602716
17745.0,27253.0,0.7456916272978366
17755.0,27264.0,0.7905447564909576
17765.0,27258.0,0.8322748557876226
17775.0,27259.0,0.868844997173365
17786.0,27252.0,0.8977956441371208
17796.0,27265.0,0.9163302674262958
17806.0,27258.0,0.9214446844867973
17816.0,27275.0,0.9100987040469796
17825.0,27268.0,0.8794229781872832
17835.0,27269.0,0.8269491137618297
17845.0,27275.0,0.7508485210222203
17855.0,27268.0,0.6501646265656994
17865.0,27286.0,0.5250218517450721
17875.0,27285.0,0.37679191804244716
17886.0,27280.0,0.20819449885616725
17896.0,27259.0,0.02330839171553903
17906.0,27255.0,-0.17252502951083992
17916.0,27215.0,-0.372913476730046
17925.0,27171.0,-0.5707355173602808
17935.0,27139.0,-0.7585531957971877
17945.0,27097.0,-0.9290804642683395
17955.0,27071.0,-1.075660861514763
17965.0,27061.0,-1.1927050255938882
17975.0,27066.0,-1.2760442917875414
17986.0,27068.0,-1.3231698796832623
17996.0,27069.0,-1.3333444172915903
18006.0,27096.0,-1.3075871732709667
18016.0,27106.0,-1.2485441037274319
18026.0,27132.0,-1.1602617208455
18035.0,27139.0,-1.0478905442885933
18045.0,27161.0,-0.9173467222148489
18055.0,27163.0,-0.774958590854629
18065.0,27180.0,-0.6271204121861024
18075.0,27194.0,-0.4799703356460559
18086.0,27210.0,-0.3391057964228432
18096.0,27210.0,-0.20934794949802926
18106.0,27214.0,-0.09456490124335291
18116.0,27219.0,0.0024413462289103044
18126.0,27226.0,0.07998544459722176
18135.0,27238.0,0.13749115675079976
18145.0,27225.0,0.17542967696406486
18155.0,27220.0,0.19520751902552586
18165.0,27218.0,0.19901127572867844
18175.0,27217.0,0.18962194112754513
18186.0,27213.0,0.1702134609492877
18196.0,27209.0,0.1441480990845823
18206.0,27196.0,0.11477894345037043
18216.0,27195.0,0.08526974259938447
18226.0,27198.0,0.058442918975267745
18236.0,27198.0,0.036665022404121714
18245.0,27206.0,0.021774002913929894
18255.0,27196.0,0.015047098488314942
18265.0,27204.0,0.01720509841135275
18275.0,27204.0,0.028448624838302877
18286.0,27217.0,0.048522285644260504
18296.0,27215.0,0.0768008264764723
18306.0,27230.0,0.11238871710956654
18316.0,27223.0,0.154223269464906
18326.0,27233.0,0.20117215477412986
18336.0,27240.0,0.25211834983411835
18345.0,27249.0,0.30602732702720165
18355.0,27246.0,0.3619914653788057
18365.0,27245.0,0.41924715664643675
18375.0,27251.0,0.47716346740375587
18386.0,27256.0,0.5352057603642119
18396.0,27248.0,0.592879865642982
18406.0,27259.0,0.6496626944979627
18416.0,27259.0,0.7049259444010348
18426.0,27255.0,0.7578601975892236
18436.0,27252.0,0.8074067228653117
18446.0,27255.0,0.8522052980541903
18455.0,27261.0,0.8905675903299536
18465.0,27265.0,0.9204839012580933
18475.0,27256.0,0.9396666115337408
18486.0,27258.0,0.9456303121136028
18496.0,27258.0,0.9358082465089792
18506.0,27273.0,0.9077042499723397
18516.0,27268.0,0.8590751767874283
18526.0,27260.0,0.7881324260827526
18536.0,27261.0,0.6937479048769968
18546.0,27265.0,0.5756507747608021
18555.0,27270.0,0.4346015959570283
18565.0,27269.0,0.2725267801563511
18575.0,27263.0,0.09259193670072137
18586.0,27256.0,-0.1008076173849232
18596.0,27234.0,-0.30215629309146325
18606.0,27200.0,-0.5050361964335626
18616.0,27154.0,-0.7024495948097376
18626.0,27118.0,-0.8872252345106681
18636.0,27080.0,-1.05247117988453
18646.0,27063.0,-1.1920263683547752
18656.0,27052.0,-1.3008623937940953
18665.0,27062.0,-1.3753956675700616
18675.0,27057.0,-1.4136850427741605
18686.0,27065.0,-1.4155060354099638
18696.0,27090.0,-1.382304973332536
18706.0,27103.0,-1.3170448962833323
18716.0,27128.0,-1.2239630980872869
18726.0,27142.0,-1.1082672789133603
18736.0,27149.0,-0.9757999661158812
18746.0,27163.0,-0.8326981456679781
18756.0,27177.0,-0.6850688973956901
18766.0,27194.0,-0.53869604897239
18775.0,27190.0,-0.3987898467347425
18786.0,27205.0,-0.2697891920507316
18796.0,27207.0,-0.15522144751713607
18806.0,27210.0,-0.057619811283855474
18816.0,27218.0,0.02150486221850217
18826.0,27224.0,0.08164243562603109
18836.0,27215.0,0.12321724783391755
18846.0,27221.0,0.1474829589046893
18856.0,27214.0,0.15638601320759699
18866.0,27214.0,0.15240742141368055
18875.0,27217.0,0.13839310371864838
18886.0,27210.0,0.1173819027175309
18896.0,27195.0,0.09243895732140324
18906.0,27202.0,0.06650236999466934
18916.0,27201.0,0.04225248754147343
18926.0,27200.0,0.022011838841553426
18936.0,27205.0,0.007679120815516151
18946.0,27209.0,0.0006962104074769083
18956.0,27205.0,0.0020446026399536478
18966.0,27204.0,0.012266512995860053
18976.0,27216.0,0.03150645637743658
18986.0,27226.0,0.059569763986379365
18996.0,27231.0,0.09599228870487395
19006.0,27227.0,0.1401120279797502
19016.0,27237.0,0.1911332937713397
19026.0,27239.0,0.24817782771786717
19036.0,27246.0,0.3103206987815571
19046.0,27249.0,0.3766098638834176
19056.0,27244.0,0.44606891224772394
19066.0,27262.0,0.5176844988381962
19076.0,27261.0,0.5903820106693306
19086.0,27270.0,0.6629929345529628
19096.0,27268.0,0.7342161332825935
19106.0,27260.0,0.8025758937807743
19116.0,27272.0,0.866382889162864
19126.0,27264.0,0.9237074259103444
19136.0,27275.0,0.9723746479019434
19146.0,27283.0,1.009988605991723
19156.0,27277.0,1.0339879068759121
19166.0,27280.0,1.0417318100642026
19176.0,27273.0,1.030614136657006
19187.0,27273.0,0.9982030605920136
19196.0,27272.0,0.9424050444412717
19206.0,27275.0,0.8616490852088415
19216.0,27271.0,0.7550833260644138
19226.0,27281.0,0.622771229338901
19236.0,27282.0,0.46586990273895235
19246.0,27293.0,0.28676868689182855
19256.0,27287.0,0.08916208648800074
19266.0,27266.0,-0.12196987092463059
19276.0,27244.0,-0.3404951965504359
19287.0,27191.0,-0.5593853672095407
19296.0,27155.0,-0.7710817850484993
19306.0,27117.0,-0.9679430201232171
19316.0,27072.0,-1.142727953189259
19326.0,27063.0,-1.2890635163220796
19336.0,27049.0,-1.4018476046333657
19346.0,27060.0,-1.4775475558191549
19356.0,27069.0,-1.514371041452737
19366.0,27080.0,-1.512304501053835
19376.0,27103.0,-1.473029287957211
19387.0,27116.0,-1.3997356806483658
19397.0,27135.0,-1.2968606222347847
19406.0,27152.0,-1.1697773240134182
19416.0,27158.0,-1.0244639054274955
19426.0,27169.0,-0.8671743868910873
19436.0,27188.0,-0.7041294777750162
19446.0,27197.0,-0.5412391023411448
19456.0,27210.0,-0.3838657649259912
19466.0,27217.0,-0.23663638739597365
19476.0,27217.0,-0.1033074515301701
19487.0,27236.0,0.013315974372961677
19497.0,27230.0,0.11141040085793336
19506.0,27239.0,0.19011802653159182
19516.0,27245.0,0.24949021639011223
19526.0,27243.0,0.2903964465210165
19536.0,27237.0,0.31440517954528246
19546.0,27246.0,0.3236439497073167
19556.0,27241.0,0.3206472438992294
19566.0,27240.0,0.30820046491390596
19576.0,27230.0,0.2891867499792163
19587.0,27228.0,0.2664434706641421
19597.0,27230.0,0.2426365893135396
19607.0,27225.0,0.22016074329077512
19616.0,27236.0,0.2010699367271338
19626.0,27237.0,0.1870394624672052
19636.0,27232.0,0.17935564393979575
19646.0,27239.0,0.178927694048981
19656.0,27243.0,0.18631619827220924
19666.0,27246.0,0.20177333734878775
19676.0,27254.0,0.22528907761979017
19687.0,27251.0,0.25663655893923465
19697.0,27260.0,0.2954104683965508
19707.0,27255.0,0.3410541165760623
19716.0,27268.0,0.39287327475776257
19726.0,27269.0,0.45003652791699184
19736.0,27265.0,0.5115625972760068
19746.0,27268.0,0.5762962296997816
19756.0,27269.0,0.6428771486443833
19766.0,27278.0,0.7097093477606915
19776.0,27276.0,0.7749380565624213
19787.0,27283.0,0.8364397782376138
19797.0,27276.0,0.8918294603235807
19807.0,27287.0,0.9384888965739527
19817.0,27277.0,0.9736206659518128
19826.0,27289.0,0.9943310972348768
19836.0,27284.0,0.9977437872862995
19846.0,27274.0,0.9811427072922176
19856.0,27283.0,0.9421421056256114
19866.0,27289.0,0.878879097612277
19876.0,27299.0,0.7902208532527024
19887.0,27300.0,0.6759705334015764
19897.0,27301.0,0.5370489936079008
19907.0,27295.0,0.3756270087384891
19917.0,27290.0,0.1951851429311354
19927.0,27293.0,0.00048282167890605906
19936.0,27263.0,-0.20257738019640442
19946.0,27219.0,-0.4071981506093204
19956.0,27172.0,-0.6060435459567514
19966.0,27137.0,-0.7916773966973494
19976.0,27109.0,-0.9570398891375362
19987.0,27085.0,-1.095910678004849
19997.0,27079.0,-1.203310902135823
20007.0,27071.0,-1.2758067451717057
20017.0,27082.0,-1.3116899578505057
20027.0,27102.0,-1.3110247314511145
20036.0,27130.0,-1.2755652012426621
20046.0,27138.0,-1.20856271738037
20056.0,27149.0,-1.1144926799487884
20066.0,27168.0,-0.9987327051703218
20076.0,27178.0,-0.8672191998217307
20087.0,27200.0,-0.7261045877526873
20097.0,27207.0,-0.581435074067979
20107.0,27211.0,-0.4388666521011363
20117.0,27222.0,-0.30343258775900883
20127.0,27222.0,-0.17936913365104626
20137.0,27226.0,-0.07000021379534441
20146.0,27231.0,0.02232232013931988
20156.0,27233.0,0.09622886683287353
20166.0,27239.0,0.15129973817134887
20176.0,27238.0,0.18799697520577155
20187.0,27242.0,0.20756622319546375
20197.0,27244.0,0.21191406051540249
20207.0,27234.0,0.20346585194586486
20217.0,27225.0,0.18500973374168764
20227.0,27228.0,0.15953471175801262
20237.0,27222.0,0.13007331649233483
20246.0,27216.0,0.09955878162572544
20256.0,27222.0,0.07070398386392773
20266.0,27212.0,0.04590691722214111
20276.0,27220.0,0.02718540631966647
20287.0,27222.0,0.016141471602657498
20297.0,27229.0,0.013953071950992353
20307.0,27235.0,0.021387683171934964
20317.0,27229.0,0.03882950939973085
20327.0,27227.0,0.06631228117887918
20337.0,27236.0,0.10355302405148581
20347.0,27248.0,0.14998570374557538
20356.0,27251.0,0.20479328421195825
20366.0,27248.0,0.26693371184713865
20376.0,27247.0,0.33515521751393507
20387.0,27256.0,0.4080008166279325
20397.0,27263.0,0.4838063748739703
20407.0,27272.0,0.5606967965149228
20417.0,27258.0,0.6365823715174456
20427.0,27259.0,0.7091572451112238
20437.0,27267.0,0.7759060773779911
20447.0,27269.0,0.8341284589292027
20456.0,27275.0,0.8809887827297721
20466.0,27277.0,0.9135940635234786
20476.0,27266.0,0.9290984385830716
20487.0,27279.0,0.9248322141823493
20497.0,27273.0,0.8984533394191979
20507.0,27275.0,0.8481173231077189
20517.0,27280.0,0.7726577680943737
20527.0,27282.0,0.6717658019645713
20537.0,27284.0,0.5461530018552455
20547.0,27283.0,0.3976789836243064
20557.0,27277.0,0.22942325537109834
20566.0,27286.0,0.04568185293369487
20576.0,27256.0,-0.1481283201463928
20587.0,27220.0,-0.34566957569445955
20597.0,27173.0,-0.5399881782664838
20607.0,27143.0,-0.7239045854955614
20617.0,27107.0,-0.8904515082607879
20627.0,27091.0,-1.0333132404872007
20637.0,27073.0,-1.147221282826347
20647.0,27079.0,-1.2282694188703318
20657.0,27077.0,-1.2741232449331097
20666.0,27088.0,-1.2841126906080291
20676.0,27108.0,-1.2592087862682846
20687.0,27113.0,-1.201896288617551
20697.0,27133.0,-1.1159613007311515
20707.0,27145.0,-1.0062168581256383
20717.0,27170.0,-0.8781901114783642
20727.0,27187.0,-0.7377948343792909
20737.0,27182.0,-0.5910130996027069
20747.0,27196.0,-0.4436069546629411
20757.0,27198.0,-0.3008731454089816
20767.0,27213.0,-0.1674455366377458
20776.0,27220.0,-0.047145830109272625
20787.0,27225.0,0.05711695159136581
20797.0,27226.0,0.14339762231722789
20807.0,27223.0,0.21071797837673162
20817.0,27234.0,0.2590267914541721
20827.0,27232.0,0.28912391788965563
20837.0,27236.0,0.30255529045534996
20847.0,27230.0,0.30148374264141187
20857.0,27219.0,0.28854047979419767
20867.0,27217.0,0.26666444147006124
20877.0,27212.0,0.23893994657842124
20887.0,27224.0,0.20844372061432348
20897.0,27206.0,0.17810919448515897
20907.0,27210.0,0.1506116135337815
20917.0,27205.0,0.12827597531061075
20927.0,27206.0,0.11301058278670931
20937.0,27218.0,0.10626834839598835
20947.0,27214.0,0.10903470098537114
20957.0,27216.0,0.12183715819996056
20967.0,27233.0,0.14476985800242845
20977.0,27224.0,0.17752638846295724
20987.0,27233.0,0.2194343523413759
20997.0,27233.0,0.2694860480083001
21007.0,27224.0,0.3263626312202274
21017.0,27236.0,0.3884528956319557
21027.0,27239.0,0.4538706691821915
21037.0,27239.0,0.5204752425490208
21047.0,27248.0,0.5858974902599395
21057.0,27233.0,0.6475733322690322
21067.0,27249.0,0.7027873861301137
21077.0,27248.0,0.7487312010989261
21088.0,27249.0,0.7825796710456396
21097.0,27253.0,0.8015861925408313
21107.0,27245.0,0.8031947390963702
21117.0,27239.0,0.7851666782195662
21127.0,27250.0,0.7457207556364979
21137.0,27256.0,0.6836836603492444
21147.0,27254.0,0.5986435484752597
21157.0,27255.0,0.4910920410637987
21167.0,27248.0,0.36253682610612653
21177.0,27258.0,0.21556791411306048
21188.0,27246.0,0.05386217572437861
21197.0,27236.0,-0.11788838187207634
21207.0,27213.0,-0.2941360781747943
21217.0,27162.0,-0.46872761873430463
21227.0,27134.0,-0.6352330955019719
21237.0,27103.0,-0.7873254323137336
21247.0,27091.0,-0.9191700977493692
21257.0,27084.0,-1.025784367604727
21267.0,27072.0,-1.1033342348112185
21277.0,27066.0,-1.149348317287805
21288.0,27076.0,-1.1628366926636402
21298.0,27089.0,-1.14430910608922
21307.0,27104.0,-1.0956951942852988
21317.0,27117.0,-1.020179252644472
21327.0,27133.0,-0.921969518112615
21337.0,27139.0,-0.8060245987873477
21347.0,27155.0,-0.6777585263823876
21357.0,27178.0,-0.542743125162225
21367.0,27186.0,-0.4064245995606764
21377.0,27179.0,-0.273870663918838
21388.0,27196.0,-0.14956121763363672
21398.0,27195.0,-0.03722823652295102
21407.0,27212.0,0.06025544302709982
21417.0,27211.0,0.14093979861923053
21427.0,27208.0,0.2038141914519885
21437.0,27210.0,0.24877851783862512
21447.0,27211.0,0.27657420860680965
21457.0,27214.0,0.28868301346315545
21467.0,27211.0,0.28720116620826586
21477.0,27202.0,0.27469504691934843
21488.0,27196.0,0.2540448016154414
21498.0,27194.0,0.22828474411192065
21508.0,27199.0,0.20045089731467106
21517.0,27193.0,0.1734441426907197
21527.0,27191.0,0.14991337686048753
21537.0,27181.0,0.1321606275790874
21547.0,27201.0,0.12207037186595687
21557.0,27199.0,0.12106482174192577
21567.0,27200.0,0.13008302335135397
21577.0,27207.0,0.14957746229345903
21588.0,27203.0,0.17952154979137686
21598.0,27212.0,0.21942362350803835
21608.0,27206.0,0.2683451056256164
21618.0,27217.0,0.32492195999471996
21627.0,27222.0,0.38738968341453334
21637.0,27216.0,0.4536121844466788
21647.0,27210.0,0.5211152266986836
21657.0,27223.0,0.5871277554599409
21667.0,27222.0,0.6486374538414961
21677.0,27230.0,0.702465985820175
21688.0,27225.0,0.7453653848214575
21698.0,27224.0,0.774134494624276
21708.0,27228.0,0.7857545361866118
21718.0,27240.0,0.7775428849727631
21727.0,27233.0,0.747321054251147
21737.0,27237.0,0.6935877787679777
21747.0,27235.0,0.6156849572634827
21757.0,27244.0,0.5139436823983181
21767.0,27236.0,0.38979662729766
21777.0,27240.0,0.24584105415087856
21788.0,27233.0,0.0858360772877743
21798.0,27214.0,-0.08538014839085649
21808.0,27198.0,-0.26206263245626266
21818.0,27155.0,-0.4378216390999457
21828.0,27123.0,-0.6059626270724182
21837.0,27102.0,-0.7598782109869288
21847.0,27068.0,-0.8934559794537279
21857.0,27047.0,-1.0014626469026569
21867.0,27050.0,-1.0798672423143538
21877.0,27059.0,-1.1260725613745508
21888.0,27066.0,-1.139036801358949
21898.0,27075.0,-1.119283638742618
21908.0,27084.0,-1.0688114636175192
21918.0,27105.0,-0.9909181012731814
21928.0,27119.0,-0.8899597809950438
21937.0,27140.0,-0.7710657741517618
21947.0,27146.0,-0.6398323851030081
21957.0,27142.0,-0.5020190114166037
21967.0,27162.0,-0.3632632328937768
21977.0,27177.0,-0.22882432029934216
21988.0,27190.0,-0.10336126014561395
21998.0,27199.0,0.009246525258262812
22008.0,27188.0,0.10602617490125016
22018.0,27189.0,0.18498075669301306
22028.0,27195.0,0.2451039057572295
22038.0,27202.0,0.2863487518220062
22047.0,27202.0,0.309559949518414
22057.0,27199.0,0.31637384209126457
22067.0,27188.0,0.30909028316232295
22077.0,27190.0,0.2905221439852734
22088.0,27190.0,0.2638318075031529
22098.0,27187.0,0.23236418913878043
22108.0,27178.0,0.19948319105274875
22118.0,27168.0,0.16841686935864975
22128.0,27180.0,0.14211778813563747
22138.0,27174.0,0.12314574270530318
22148.0,27180.0,0.11357706385144038
22157.0,27179.0,0.1149402167446009
22167.0,27176.0,0.12817520350572842
22177.0,27183.0,0.15361469009530165
22188.0,27191.0,0.19098567506444838
22198.0,27194.0,0.23942989989174437
22208.0,27204.0,0.29753908596003964
22218.0,27199.0,0.36339975513040235
22228.0,27199.0,0.43464365359572443
22238.0,27210.0,0.508503216591151
22248.0,27202.0,0.5818746979673073
22257.0,27210.0,0.6513925539684146
22267.0,27213.0,0.7135182637660166
22277.0,27207.0,0.7646462202029853
22288.0,27217.0,0.8012284188210643
22298.0,27211.0,0.8199184897429551
22308.0,27222.0,0.8177339199373957
22318.0,27227.0,0.7922322093778621
22328.0,27219.0,0.7416924335647788
22338.0,27227.0,0.6652900835438186
22348.0,27229.0,0.563251527779109
22358.0,27231.0,0.4369734584934114
22367.0,27231.0,0.28909052070394237
22377.0,27218.0,0.12347293496997952
22388.0,27206.0,-0.05486172824692329
22398.0,27182.0,-0.23993181812436074
22408.0,27147.0,-0.4250692659111431
22418.0,27101.0,-0.6032787227885553
22428.0,27073.0,-0.767651100469271
22438.0,27044.0,-0.9117917648329594
22448.0,27038.0,-1.0302183880044493
22458.0,27028.0,-1.1186883332178248
22467.0,27037.0,-1.1744274137528448
22477.0,27046.0,-1.196246181009449
22488.0,27047.0,-1.184543297982218
22498.0,27077.0,-1.1412060024360733
22508.0,27082.0,-1.069424723426914
22518.0,27099.0,-0.9734438224653945
22528.0,27122.0,-0.8582732011631788
22538.0,27117.0,-0.7293852652723003
22548.0,27131.0,-0.5924187006241782
22558.0,27137.0,-0.4529048409213752
22568.0,27152.0,-0.3160258517822813
22577.0,27157.0,-0.18641020480319148
22588.0,27165.0,-0.06797010781057627
22598.0,27160.0,0.036215671119464186
22608.0,27176.0,0.12397333080860597
22618.0,27180.0,0.19406278729044144
22628.0,27190.0,0.24616672299094602
22638.0,27182.0,0.28084085538190245
22648.0,27174.0,0.29942602202593704
22658.0,27177.0,0.3039265432869144
22668.0,27171.0,0.29686440506606543
22677.0,27169.0,0.2811206954574844
22688.0,27172.0,0.2597742061010532
22698.0,27160.0,0.23594483516725032
22708.0,27162.0,0.21264793719348335
22718.0,27157.0,0.192665342595418
22728.0,27165.0,0.17843846883403014
22738.0,27167.0,0.17198689747649806
22748.0,27163.0,0.1748521177602397
22758.0,27168.0,0.1880634838743772
22768.0,27170.0,0.21212338303315478
22778.0,27180.0,0.24700937638074683
22788.0,27193.0,0.29219011121623484
22798.0,27186.0,0.34664929024327995
22808.0,27180.0,0.4089111089560207
22818.0,27186.0,0.47706440850328685
22828.0,27193.0,0.5487891168236595
22838.0,27192.0,0.6213912712051163
22848.0,27189.0,0.6918511193281262
22858.0,27192.0,0.7568874894430573
22868.0,27199.0,0.8130425849997447
22878.0,27198.0,0.8567911900432823
22889.0,27201.0,0.884675389082206
22898.0,27215.0,0.8934623984355476
22908.0,27199.0,0.8803200292661445
22918.0,27211.0,0.84300160803699
22928.0,27202.0,0.7800309649600269
22938.0,27220.0,0.6908775815885019
22948.0,27217.0,0.5761092259013996
22958.0,27212.0,0.4375046566343286
22968.0,27215.0,0.27810630025394834
22978.0,27206.0,0.10219441029062053
22989.0,27188.0,-0.08483165202547557
22998.0,27153.0,-0.2766732401765555
23008.0,27104.0,-0.4664504005596459
23018.0,27064.0,-0.6470979234719852
23028.0,27040.0,-0.8118015010952406
23038.0,27019.0,-0.9544258768149955
23048.0,27015.0,-1.0698891063717555
23058.0,27011.0,-1.1544486597541914
23068.0,27006.0,-1.205879798515788
23078.0,27030.0,-1.223540229363984
23089.0,27041.0,-1.2083261391831277
23098.0,27058.0,-1.162533878355609
23108.0,27065.0,-1.0896485709225878
23118.0,27071.0,-0.9940838323701116
23128.0,27092.0,-0.8808949246258478
23138.0,27100.0,-0.7554839658314951
23148.0,27120.0,-0.6233137834154943
23158.0,27121.0,-0.48964650243696584
23168.0,27120.0,-0.35932079338051126
23178.0,27120.0,-0.23657573508282465
23189.0,27136.0,-0.1249211834527584
23199.0,27149.0,-0.027049640841755398
23208.0,27149.0,0.055213796508209505
23218.0,27153.0,0.1209226948534249
23228.0,27143.0,0.1699807677110656
23238.0,27152.0,0.2030769527875111
23248.0,27157.0,0.22159164262355385
23258.0,27153.0,0.22748175572309237
23268.0,27150.0,0.2231496266346954
23278.0,27146.0,0.21129961921814602
23289.0,27139.0,0.1947883026368294
23299.0,27133.0,0.17647645415951654
23309.0,27132.0,0.15909235513871903
23318.0,27138.0,0.14511542636512959
23328.0,27137.0,0.13668643362598418
23338.0,27137.0,0.13554596711790265
23348.0,27147.0,0.14299930882982315
23358.0,27154.0,0.1599039317677787
23368.0,27154.0,0.1866739578491
23378.0,27156.0,0.22329421057602677
23389.0,27150.0,0.2693376287671588
23399.0,27165.0,0.32398369817568134
23409.0,27168.0,0.3860386004318462
23418.0,27166.0,0.45395755016508615
23428.0,27178.0,0.5258684103333514
23438.0,27164.0,0.5995963693425115
23448.0,27177.0,0.6726920731066027
23458.0,27179.0,0.7424679825790557
23468.0,27186.0,0.8060479147969929
23478.0,27182.0,0.8604323665968497
23489.0,27181.0,0.9025800545677762
23499.0,27175.0,0.9295066198356456
23509.0,27182.0,0.9384032266845312
23519.0,27195.0,0.9267772808382324
23528.0,27200.0,0.8926123687095306
23538.0,27192.0,0.834536579092953
23548.0,27183.0,0.7519835080793561
23558.0,27192.0,0.6453318018787662
23568.0,27197.0,0.5160124249149015
23578.0,27197.0,0.3665714474573133
23589.0,27191.0,0.20067126744998365
23599.0,27167.0,0.023011902283097657
23609.0,27145.0,-0.16083966297862828
23619.0,27101.0,-0.3447115426530439
23628.0,27062.0,-0.5221645315024286
23638.0,27033.0,-0.6868743347842676
23648.0,27009.0,-0.8330172207272658
23658.0,26992.0,-0.9556167573599035
23668.0,26981.0,-1.0508184800503961
23678.0,27001.0,-1.116074464273211
23689.0,27016.0,-1.1502340803249818
23699.0,27017.0,-1.1535460362670042
23709.0,27031.0,-1.1275804839950276
23719.0,27033.0,-1.0750818940932445
23729.0,27051.0,-0.9997657046024412
23738.0,27075.0,-0.9060743582514332
23748.0,27070.0,-0.7989111271258071
23758.0,27083.0,-0.6833716072606794
23768.0,27092.0,-0.56448994516297
23778.0,27101.0,-0.4470110473082776
23789.0,27112.0,-0.3351961801637803
23799.0,27113.0,-0.23266822626230377
23809.0,27109.0,-0.1423011716093271
23819.0,27125.0,-0.0661545916025824
23829.0,27118.0,-0.005449934419680436
23838.0,27129.0,0.0394159680953266
23848.0,27129.0,0.06882393483411482
23858.0,27114.0,0.08385537255255635
23868.0,27128.0,0.08618980108933406
23878.0,27128.0,0.07798368982694583
23889.0,27119.0,0.06173711734201587
23899.0,27113.0,0.040152637923074795
23909.0,27103.0,0.015991261634130418
23919.0,27102.0,-0.008065884048604258
23929.0,27103.0,-0.029539491351954404
23939.0,27107.0,-0.04624889776529623
23948.0,27112.0,-0.0563800683399905
23958.0,27108.0,-0.05852622965741407
23968.0,27106.0,-0.051705449938549475
23978.0,27114.0,-0.03535893271595656
23989.0,27121.0,-0.009332283785788813
23999.0,27125.0,0.026157213616463178
24009.0,27131.0,0.07056164953786133
24019.0,27130.0,0.1230450058241289
24029.0,27139.0,0.18252177337582853
24039.0,27139.0,0.2476888428000268
24048.0,27148.0,0.31704970726049536
24058.0,27149.0,0.38893091516711387
24068.0,27148.0,0.46149145946518033
24078.0,27145.0,0.5327274834680127
24089.0,27146.0,0.6004776772713295
24099.0,27162.0,0.6624372691789521
24109.0,27157.0,0.7161876496714051
24119.0,27155.0,0.7592447323307063
24129.0,27157.0,0.78912658952132
24139.0,27161.0,0.8034414951957104
24149.0,27162.0,0.7999975187567926
24158.0,27165.0,0.7769317628603578
24168.0,27162.0,0.7328533734996673
24178.0,27162.0,0.6669918665373599
24189.0,27175.0,0.5793407611312869
24199.0,27173.0,0.47078404332410534
24209.0,27175.0,0.3431889780425999
24219.0,27172.0,0.19944596339669105
24229.0,27160.0,0.04343727914481882
24239.0,27137.0,-0.12007830168243293
24249.0,27103.0,-0.28566922627323926
24258.0,27064.0,-0.4475144364857119
24268.0,27028.0,-0.5997422087188912
24278.0,27000.0,-0.7367877634932397
24289.0,26988.0,-0.8537282501928722
24299.0,26982.0,-0.9465606658418029
24309.0,26984.0,-1.0124034540700284
24319.0,26996.0,-1.0496172792082399
24329.0,26999.0,-1.0578486678103534
24339.0,27005.0,-1.03800245875982
24349.0,27022.0,-0.992148866473792
24359.0,27045.0,-0.9233714840548461
24368.0,27050.0,-0.8355658698325383
24378.0,27071.0,-0.7332037883122314
24389.0,27067.0,-0.6210816806876348
24399.0,27083.0,-0.5040706977487073
24409.0,27088.0,-0.38688111276110265
24419.0,27104.0,-0.2738497667443779
24429.0,27119.0,-0.16875780948429844
24439.0,27115.0,-0.07468678099930534
24449.0,27118.0,0.006079225673201313
24459.0,27115.0,0.0721017285843015
24469.0,27119.0,0.12278923233017301
24478.0,27130.0,0.15835891118503292
24489.0,27125.0,0.1797653544885244
24499.0,27114.0,0.1886007631576639
24509.0,27117.0,0.18697122625065157
24519.0,27118.0,0.17735706442888924
24529.0,27125.0,0.16246668226248834
24539.0,27103.0,0.14509056985297994
24549.0,27100.0,0.12795991192879433
24559.0,27106.0,0.11361667527327984
24569.0,27104.0,0.10430482549810088
24578.0,27111.0,0.10188984135755542
24589.0,27116.0,0.10780777483433229
24599.0,27112.0,0.12304065030665579
24609.0,27121.0,0.14811342764296231
24619.0,27122.0,0.1831081622191389
24629.0,27137.0,0.22769157304752796
24639.0,27137.0,0.2811513687113879
24649.0,27137.0,0.34243539395988865
24659.0,27140.0,0.4101886452669912
24669.0,27150.0,0.48278671070018
24679.0,27159.0,0.5583667978524333
24689.0,27158.0,0.6348568574944082
24699.0,27153.0,0.7100020373814988
24709.0,27156.0,0.7813896982704288
24719.0,27165.0,0.8464784627186884
24729.0,27163.0,0.9026384420115403
24739.0,27166.0,0.947207457087492
24749.0,27171.0,0.9775651136048905
24759.0,27163.0,0.9912251403803695
24769.0,27170.0,0.9859455415782942
24779.0,27168.0,0.9598550474395475
24790.0,27177.0,0.9115923413339517
24799.0,27181.0,0.8404506453520282
24809.0,27165.0,0.7465155893300603
24819.0,27181.0,0.6307818427585158
24829.0,27170.0,0.49523445622708606
24839.0,27179.0,0.34288124727195457
24849.0,27175.0,0.17772132056397968
24859.0,27150.0,0.004634595412891805
24869.0,27099.0,-0.1708175779465818
24879.0,27069.0,-0.3426764036744885
24890.0,27036.0,-0.5049296561921603
24899.0,27015.0,-0.6518758317935547
24909.0,26993.0,-0.7784658689933469
24919.0,26979.0,-0.8805881134867111
24929.0,26984.0,-0.9552761240251538
24939.0,26983.0,-1.000833007853618
24949.0,27000.0,-1.0168751788344248
24959.0,27013.0,-1.0043017134807573
24969.0,27025.0,-0.9651957772552977
24979.0,27045.0,-0.9026654471905629
24990.0,27047.0,-0.8206347637912322
25000.0,27072.0,-0.7236006978873134
25009.0,27070.0,-0.6163743582604199
25019.0,27084.0,-0.5038238438885125
25029.0,27093.0,-0.39063289494610925
25039.0,27109.0,-0.2810859149174973
25049.0,27113.0,-0.17888805995177212
25059.0,27124.0,-0.08702860164264993
25069.0,27121.0,-0.00769415687589268
25079.0,27123.0,0.057765405253655686
25090.0,27124.0,0.10882047566739636
25100.0,27123.0,0.14570104503523468
25109.0,27133.0,0.16930044462798474
25119.0,27123.0,0.18105180724173778
25129.0,27121.0,0.1827845776082112
25139.0,27116.0,0.17656905180214036
25149.0,27114.0,0.16455918839454065
25159.0,27114.0,0.14884509058359435
25169.0,27113.0,0.13132510258026606
25179.0,27112.0,0.11360453848158275
25190.0,27103.0,0.09692546103546514
25200.0,27109.0,0.08213073892905362
25210.0,27109.0,0.06966511868030703
25219.0,27123.0,0.059613903138555066
