timestamp_ms,ir_value,ir_filtered
6907.0,24319.0,-0.06704360681646461
6917.0,24323.0,-0.10590036258959516
6927.0,24319.0,-0.1449033532329014
6937.0,24313.0,-0.18382969114231634
6947.0,24305.0,-0.22233116257113156
6958.0,24309.0,-0.25990210472615
6968.0,24305.0,-0.29586685136461127
6978.0,24309.0,-0.3293912833784988
6987.0,24292.0,-0.3595217945186301
6997.0,24295.0,-0.3852509582061147
7007.0,24293.0,-0.4056024600210624
7017.0,24275.0,-0.4197229802767712
7027.0,24291.0,-0.4269673302535521
7037.0,24287.0,-0.426963583716855
7047.0,24289.0,-0.419649523071561
7057.0,24289.0,-0.4052799708154495
7067.0,24296.0,-0.38440948971491634
7077.0,24293.0,-0.35785556133242935
7087.0,24290.0,-0.3266477323400357
7098.0,24300.0,-0.2919674604821371
7108.0,24298.0,-0.2550813768643789
7118.0,24297.0,-0.2172710644649826
7128.0,24306.0,-0.1797642693469215
7137.0,24308.0,-0.14367273398054706
7147.0,24299.0,-0.10994201101162399
7157.0,24300.0,-0.07931774249012585
7167.0,24303.0,-0.05232779890730209
7177.0,24312.0,-0.029274927125591016
7187.0,24314.0,-0.010236442533546795
7197.0,24313.0,0.004927245790425313
7207.0,24310.0,0.016551626010713694
7217.0,24305.0,0.025133166374931404
7227.0,24299.0,0.031282454190520774
7238.0,24300.0,0.035670810693491546
7248.0,24301.0,0.03897870534448865
7258.0,24306.0,0.04185396165355268
7268.0,24310.0,0.04488284495976283
7277.0,24309.0,0.0485709210207966
7287.0,24299.0,0.053327994093475134
7297.0,24301.0,0.059454516355082934
7307.0,24316.0,0.06713235448856344
7317.0,24307.0,0.07642409712014127
7327.0,24314.0,0.08728037119205097
7337.0,24310.0,0.0995501083877216
7347.0,24307.0,0.11298920292439248
7357.0,24309.0,0.12726602406267223
7367.0,24307.0,0.14196415617976518
7378.0,24300.0,0.15658368248386353
7388.0,24322.0,0.1705439005007924
7398.0,24311.0,0.1831917518162797
7408.0,24315.0,0.1938186803889672
7417.0,24310.0,0.20168484089570665
7427.0,24310.0,0.20604778902178578
7437.0,24299.0,0.20619413593896074
7447.0,24313.0,0.20147513385579618
7457.0,24315.0,0.19134848223623535
7467.0,24318.0,0.17542632334633804
7477.0,24322.0,0.15352465399363993
7487.0,24317.0,0.12570709053813126
7497.0,24321.0,0.09231698200142173
7507.0,24299.0,0.05399353705591666
7518.0,24305.0,0.011669581204134387
7528.0,24305.0,-0.033449355732020535
7538.0,24303.0,-0.07992537027341261
7548.0,24294.0,-0.12615087175902506
7557.0,24287.0,-0.1704346357315204
7567.0,24288.0,-0.2111046922524856
7577.0,24282.0,-0.24661491608664385
7587.0,24280.0,-0.27564174852365164
7597.0,24281.0,-0.29716075833882305
7607.0,24286.0,-0.3104962223116969
7617.0,24282.0,-0.31534137068659124
7627.0,24290.0,-0.3117522927696387
7637.0,24291.0,-0.30012207430363863
7647.0,24280.0,-0.2811428528651656
7658.0,24287.0,-0.25576159886477984
7668.0,24283.0,-0.22513015688003854
7678.0,24289.0,-0.19054610025003862
7688.0,24296.0,-0.15338278453309817
7697.0,24301.0,-0.11501288156723716
7707.0,24289.0,-0.07673517385471477
7717.0,24298.0,-0.039714502788382754
7727.0,24294.0,-0.004938372739995973
7737.0,24296.0,0.026812322018470062
7747.0,24296.0,0.05498171053173132
7757.0,24300.0,0.07924827922920719
7767.0,24306.0,0.09952539294852009
7777.0,24303.0,0.11595041912501187
7787.0,24293.0,0.12885778567674708
7798.0,24294.0,0.13873495166061567
7808.0,24296.0,0.14616855041675728
7818.0,24296.0,0.15179229813398074
7828.0,24300.0,0.15624440278273125
7837.0,24296.0,0.1601356712957457
7847.0,24304.0,0.1640260188319149
7857.0,24299.0,0.16840630340865329
7867.0,24294.0,0.17368257813486768
7877.0,24300.0,0.18016182557997354
7887.0,24295.0,0.18804162332599814
7897.0,24304.0,0.197407044018805
7907.0,24304.0,0.20823486392992746
7917.0,24303.0,0.22040083013253528
7927.0,24298.0,0.23368408343214456
7938.0,24296.0,0.24776614207442804
7948.0,24300.0,0.2622280221288624
7958.0,24302.0,0.27655205221490314
7968.0,24307.0,0.29013168181072013
7977.0,24303.0,0.3022865610667937
7987.0,24303.0,0.31227711884835285
7997.0,24294.0,0.31931533346040114
8007.0,24296.0,0.3225744645381932
8017.0,24296.0,0.3212056986011161
8027.0,24298.0,0.3143698375325092
8037.0,24305.0,0.3012868755070954
8047.0,24302.0,0.2812989432207555
8057.0,24303.0,0.2539367049234724
8067.0,24294.0,0.2189787335904966
8078.0,24294.0,0.17649798870574282
8088.0,24298.0,0.12689546038930255
8098.0,24298.0,0.07092256461505768
8108.0,24295.0,0.009689639729958156
8118.0,24298.0,-0.05534667736971632
8127.0,24293.0,-0.12242471066876333
8137.0,24281.0,-0.18955211990535356
8147.0,24269.0,-0.2546117828343617
8157.0,24272.0,-0.3154876941762411
8167.0,24271.0,-0.3701917385929309
8177.0,24271.0,-0.41697460301798006
8187.0,24270.0,-0.4544137385953103
8197.0,24272.0,-0.4814787873919581
8207.0,24265.0,-0.4975769950828328
8218.0,24254.0,-0.5025794853361322
8228.0,24268.0,-0.49682453971212615
8238.0,24268.0,-0.4810905058920305
8248.0,24276.0,-0.4565357492871446
8258.0,24270.0,-0.4246134523349915
8267.0,24279.0,-0.3869743792071912
8277.0,24281.0,-0.34536864329388445
8287.0,24271.0,-0.30155432392767867
8297.0,24276.0,-0.25721795360671457
8307.0,24277.0,-0.21390681485559335
8317.0,24278.0,-0.17296897222167051
8327.0,24288.0,-0.13549869096575956
8337.0,24286.0,-0.1022901295717303
8347.0,24286.0,-0.0738062657541347
8358.0,24286.0,-0.0501700413029383
8368.0,24285.0,-0.03118050079802207
8378.0,24281.0,-0.016351688587974426
8388.0,24286.0,-0.004969001201274154
8398.0,24278.0,0.0038435819005805663
8407.0,24288.0,0.011051770099561436
8417.0,24285.0,0.017639442829045088
8427.0,24274.0,0.0245397677262202
8437.0,24279.0,0.03257161422346465
8447.0,24276.0,0.0423880549555234
8457.0,24282.0,0.054446161578120565
8467.0,24288.0,0.06900297407934029
8477.0,24292.0,0.08613428277033465
8487.0,24293.0,0.10576574711544075
8498.0,24285.0,0.1277034690391504
8508.0,24290.0,0.15165541158492982
8518.0,24287.0,0.17724288918145845
8528.0,24288.0,0.20400628559842754
8538.0,24293.0,0.23140906103614428
8547.0,24289.0,0.2588418465974963
8557.0,24297.0,0.2856263176071818
8567.0,24287.0,0.31101749993763744
8577.0,24290.0,0.3342042048128806
8587.0,24288.0,0.35431045016639623
8597.0,24287.0,0.3704036801826298
8607.0,24290.0,0.38151567748328635
8617.0,24299.0,0.3866790650961758
8627.0,24292.0,0.3849770674772776
8638.0,24286.0,0.3755995338417748
8648.0,24290.0,0.3578993630637359
8658.0,24289.0,0.33144919311394855
8668.0,24291.0,0.2961000456973187
8678.0,24290.0,0.2520393501692949
8687.0,24294.0,0.19984119521927693
8697.0,24300.0,0.14049924035377598
8707.0,24286.0,0.07543077567749061
8717.0,24279.0,0.006441317979703229
8727.0,24278.0,-0.0643527463340426
8737.0,24269.0,-0.1346347420766871
8747.0,24270.0,-0.20201748086223645
8757.0,24268.0,-0.26417978466179326
8767.0,24266.0,-0.3190010672433724
8778.0,24248.0,-0.36468802627937214
8788.0,24243.0,-0.3998854786388103
8798.0,24258.0,-0.42375656362101066
8808.0,24256.0,-0.43601622846882715
8818.0,24259.0,-0.43691324560590034
8827.0,24266.0,-0.42717026186125334
8837.0,24268.0,-0.4078973329925256
8847.0,24265.0,-0.3804942347107265
8857.0,24258.0,-0.34655422282511594
8867.0,24269.0,-0.30777541325748253
8877.0,24261.0,-0.265878947612187
8887.0,24273.0,-0.22253179762985867
8897.0,24266.0,-0.17927525012738452
8907.0,24279.0,-0.13746281326650236
8918.0,24270.0,-0.09821234315323575
8928.0,24268.0,-0.062376634111352046
8938.0,24270.0,-0.030532896348514953
8948.0,24278.0,-0.0029863425855045775
8958.0,24274.0,0.020217229479651072
8968.0,24275.0,0.039270124171844605
8977.0,24274.0,0.05457041118967159
8987.0,24274.0,0.06667881757858095
8997.0,24271.0,0.07626826001647083
9007.0,24270.0,0.08407081028205751
9017.0,24276.0,0.09082746424359305
9027.0,24277.0,0.09724492546199538
9037.0,24273.0,0.10395975989270237
9047.0,24270.0,0.11150748442804029
9058.0,24276.0,0.12029616972403477
9068.0,24259.0,0.13058815155918013
9078.0,24279.0,0.14249538222643202
9088.0,24286.0,0.1559923977337574
9098.0,24276.0,0.17094374496166906
9108.0,24280.0,0.18713422825037565
9117.0,24280.0,0.2042908851441263
9127.0,24275.0,0.22209369522592012
9137.0,24277.0,0.24017750937896648
9147.0,24273.0,0.25812938787191847
9157.0,24278.0,0.2754865719211325
9167.0,24282.0,0.2917394742204952
9177.0,24280.0,0.3063402799313155
9187.0,24287.0,0.31871334631082904
9198.0,24281.0,0.3282616278407257
9208.0,24264.0,0.3343653724335138
9218.0,24270.0,0.33637649793296986
9228.0,24276.0,0.33362113342820837
9238.0,24269.0,0.3254237926612002
9248.0,24283.0,0.31115706191955034
9257.0,24281.0,0.29031025102312247
9267.0,24280.0,0.26256476859537503
9277.0,24272.0,0.22786261850693157
9287.0,24272.0,0.1864588466856811
9297.0,24280.0,0.1389561531816587
9307.0,24276.0,0.08632188483081796
9317.0,24276.0,0.0298827885888273
9327.0,24273.0,-0.02871084370548047
9338.0,24263.0,-0.087557263475891
9348.0,24252.0,-0.1446097805885888
9358.0,24250.0,-0.19780668146908972
9368.0,24254.0,-0.24520638034436656
9378.0,24251.0,-0.28511042550856996
9388.0,24244.0,-0.31616499147202043
9397.0,24250.0,-0.3374377966572817
9407.0,24248.0,-0.3484681134655501
9417.0,24244.0,-0.3492877860066799
9427.0,24244.0,-0.34041288116741036
9437.0,24254.0,-0.3228059071817106
9447.0,24251.0,-0.29780948424367415
9457.0,24253.0,-0.26705677984563875
9467.0,24255.0,-0.23236753061130982
9478.0,24262.0,-0.19563776214121306
9488.0,24258.0,-0.15873028656427232
9498.0,24250.0,-0.1233731313798836
9508.0,24266.0,-0.09107017100095291
9518.0,24271.0,-0.06302450299157493
9528.0,24264.0,-0.04007808952021499
9537.0,24266.0,-0.022677311445316307
9547.0,24269.0,-0.01087262308926414
9557.0,24258.0,-0.004353057680708693
9567.0,24253.0,-0.002510503476535878
9577.0,24255.0,-0.004523538605001459
9587.0,24251.0,-0.009445776090151504
9597.0,24262.0,-0.016284535624702008
9607.0,24260.0,-0.02406307950092063
9618.0,24261.0,-0.031868339696378
9628.0,24248.0,-0.03889015643998498
9638.0,24251.0,-0.044454270926890534
9648.0,24256.0,-0.0480436305341555
9658.0,24265.0,-0.04930088174319172
9668.0,24255.0,-0.048012781912365535
9677.0,24260.0,-0.04408551286773137
9687.0,24263.0,-0.03751970382186382
9697.0,24258.0,-0.028389415636568
9707.0,24254.0,-0.016827064393081795
9717.0,24265.0,-0.0030144942953625716
9727.0,24259.0,0.012821686542301581
9737.0,24259.0,0.030411332433458452
9747.0,24264.0,0.04943733165875374
9758.0,24261.0,0.06952700708576622
9768.0,24260.0,0.09023901368481832
9778.0,24255.0,0.11104723776879652
9788.0,24261.0,0.1313258782993534
9798.0,24255.0,0.15034238800414165
9808.0,24263.0,0.16726399963252717
9818.0,24262.0,0.18118010793457145
9827.0,24259.0,0.19113923469610605
9837.0,24265.0,0.19619731478113828
9847.0,24255.0,0.19547435617575326
9857.0,24264.0,0.18821790859313237
9867.0,24270.0,0.17387182983472307
9877.0,24263.0,0.15214558093639977
9887.0,24267.0,0.12307456449805396
9898.0,24271.0,0.08706106969608715
9908.0,24256.0,0.044888232409723915
9918.0,24257.0,-0.0022968795330122727
9928.0,24255.0,-0.053029291033328346
9938.0,24258.0,-0.10559421021646834
9948.0,24251.0,-0.15811089163908312
9958.0,24249.0,-0.20862996483863053
9967.0,24246.0,-0.25524214179648697
9977.0,24241.0,-0.2961928286101376
9987.0,24226.0,-0.3299937470728131
9997.0,24233.0,-0.35551899225171407
10007.0,24237.0,-0.3720701699667363
10017.0,24240.0,-0.37939954395704034
10027.0,24250.0,-0.37769216158471974
10038.0,24240.0,-0.36751895988365707
10048.0,24243.0,-0.34977557330249365
10058.0,24236.0,-0.3256160082476334
10068.0,24245.0,-0.2963820540334897
10078.0,24247.0,-0.2635256094767544
10088.0,24246.0,-0.22852435018858716
10098.0,24254.0,-0.19279637744971173
10107.0,24259.0,-0.15762199649447564
10117.0,24253.0,-0.12408157005673995
10127.0,24246.0,-0.09301753004632957
10137.0,24245.0,-0.06502215077388583
10147.0,24257.0,-0.04044312786217021
10157.0,24252.0,-0.019396544578050918
10167.0,24260.0,-0.0017838398591751951
10178.0,24258.0,0.012683198547764138
10188.0,24252.0,0.0244442217619279
10198.0,24249.0,0.03403777996837059
10208.0,24247.0,0.04204010884329507
10218.0,24252.0,0.04900631952550394
10228.0,24245.0,0.05542480536729887
10238.0,24259.0,0.061690805865240526
10247.0,24260.0,0.06809918854570152
10257.0,24255.0,0.07485055221574045
10267.0,24252.0,0.08206158579207042
10277.0,24252.0,0.08977462160100402
10287.0,24258.0,0.09796857446913053
10297.0,24257.0,0.10657509442657001
10307.0,24260.0,0.11549911582789586
10318.0,24259.0,0.12463870186510496
10328.0,24260.0,0.13389878825420465
10338.0,24257.0,0.1431955861959211
10348.0,24255.0,0.15245122246542753
10358.0,24259.0,0.16158111519921337
10368.0,24248.0,0.17047856115183205
10378.0,24266.0,0.17900128077360603
10387.0,24258.0,0.18696283323322574
10397.0,24261.0,0.19412761728723033
10407.0,24247.0,0.20020553025258023
10417.0,24258.0,0.20484627030343752
10427.0,24254.0,0.20763958134522495
10437.0,24254.0,0.20812802465494395
10447.0,24259.0,0.20583386756737665
10458.0,24257.0,0.20029762452010835
10468.0,24260.0,0.19112376193457878
10478.0,24256.0,0.1780278132940013
10488.0,24258.0,0.1608795221353317
10498.0,24261.0,0.1397382393897222
10508.0,24253.0,0.11487745764273953
10518.0,24256.0,0.08679539862218054
10527.0,24260.0,0.05620984718831885
10537.0,24255.0,0.024036273309403867
10547.0,24242.0,-0.008652414149872015
10557.0,24253.0,-0.04068381213234479
10567.0,24245.0,-0.0708553820716977
10577.0,24243.0,-0.09800728322582765
10587.0,24238.0,-0.12109320103556785
10598.0,24247.0,-0.1392439980822663
10608.0,24238.0,-0.15181856515439274
10618.0,24240.0,-0.1584388560344797
10628.0,24237.0,-0.15900822260179545
10638.0,24236.0,-0.15371095624685618
10648.0,24249.0,-0.14299011394198768
10658.0,24245.0,-0.1275041684677262
10667.0,24252.0,-0.10806959246956284
10677.0,24250.0,-0.08560091766910541
10687.0,24241.0,-0.06105839749650315
10697.0,24240.0,-0.035406856704626684
10707.0,24250.0,-0.009581234802099957
10717.0,24247.0,0.015548760309674066
10727.0,24250.0,0.039217436603014764
10738.0,24258.0,0.060801158495313985
10748.0,24255.0,0.07984867918909078
10758.0,24250.0,0.09609660437020252
10768.0,24245.0,0.10946578015034972
10778.0,24247.0,0.12004189296451567
10788.0,24257.0,0.12804962835143796
10798.0,24249.0,0.13382747785677168
10807.0,24256.0,0.13780288486342276
10817.0,24252.0,0.14046356359189172
10827.0,24240.0,0.14232297638331645
10837.0,24248.0,0.14388321751637734
10847.0,24257.0,0.1456030630970193
10857.0,24250.0,0.14787683800890478
10867.0,24250.0,0.15102174455704157
10878.0,24254.0,0.15526772307028586
10888.0,24253.0,0.16074724854685424
10898.0,24248.0,0.167484945755475
10908.0,24248.0,0.17538729073537138
10918.0,24246.0,0.18423509405035468
10928.0,24259.0,0.1936837737365687
10938.0,24252.0,0.20327366191055052
10947.0,24254.0,0.21244650373302668
10957.0,24252.0,0.2205619392468911
10967.0,24243.0,0.2269116211247323
10977.0,24243.0,0.23073479813197031
10987.0,24257.0,0.2312432773251619
10997.0,24251.0,0.2276615008426769
11007.0,24249.0,0.21927907573156352
11018.0,24258.0,0.20550712979480074
11028.0,24259.0,0.1859304254302028
11038.0,24244.0,0.16034802934895398
11048.0,24240.0,0.12879667801337977
11058.0,24247.0,0.09155847215488849
11068.0,24244.0,0.04916167069192463
11078.0,24243.0,0.0023804499294315462
11087.0,24249.0,-0.04776849472438853
11097.0,24246.0,-0.10003897781507447
11107.0,24240.0,-0.1529853749420944
11117.0,24231.0,-0.20501512668466884
11127.0,24235.0,-0.2544625022662357
11137.0,24226.0,-0.2996752845243902
11147.0,24233.0,-0.33910447935850474
11158.0,24223.0,-0.3713902196933953
11168.0,24230.0,-0.39544003278689616
11178.0,24220.0,-0.4104967020263398
11188.0,24214.0,-0.41619210454625927
11198.0,24216.0,-0.41258028362336974
11208.0,24226.0,-0.4001400853994281
11218.0,24228.0,-0.37974119564237324
11227.0,24227.0,-0.35257769387490717
11237.0,24237.0,-0.32008127839492095
11247.0,24232.0,-0.28382705527078256
11257.0,24226.0,-0.24544182383246899
11267.0,24240.0,-0.20652033126267533
11277.0,24232.0,-0.16855039139951833
11287.0,24239.0,-0.1328472000398741
11298.0,24241.0,-0.10049972710845016
11308.0,24233.0,-0.07233289345609663
11318.0,24243.0,-0.04888755502614776
11328.0,24232.0,-0.03041761442407674
11338.0,24239.0,-0.016901250999116175
11348.0,24241.0,-0.008062484372546546
11358.0,24242.0,-0.0034006877594029415
11367.0,24244.0,-0.002229048086513698
11377.0,24233.0,-0.003725139484178558
11387.0,24235.0,-0.006993974259485376
11397.0,24229.0,-0.011137384278633403
11407.0,24232.0,-0.015318775328116752
11417.0,24231.0,-0.01881269005334264
11427.0,24237.0,-0.02103303501662725
11438.0,24236.0,-0.021539570289116725
11448.0,24241.0,-0.02002739301348648
11458.0,24241.0,-0.01630720394243553
11468.0,24234.0,-0.010284433497684353
11478.0,24238.0,-0.0019424904026081717
11488.0,24237.0,0.008669406989374072
11498.0,24236.0,0.021446337546195328
11508.0,24243.0,0.03623746860443554
11517.0,24242.0,0.052854762937561535
11527.0,24238.0,0.07107757689909615
11537.0,24241.0,0.09065006874634104
11547.0,24238.0,0.1112714976770201
11557.0,24236.0,0.1325830185970519
11567.0,24242.0,0.15415593163716276
11578.0,24243.0,0.17548560939930982
11588.0,24246.0,0.19599223566177912
11598.0,24242.0,0.21502558254687335
11608.0,24232.0,0.2318708051725273
11618.0,24244.0,0.24575724143614733
11628.0,24238.0,0.25587719523658164
11638.0,24241.0,0.26142041138861466
11648.0,24248.0,0.2616242075263186
11657.0,24248.0,0.2558342968761043
11667.0,24240.0,0.24356811019169478
11677.0,24241.0,0.22457240692761563
11687.0,24247.0,0.19887156829559885
11697.0,24249.0,0.16680599451553735
11707.0,24243.0,0.1290564384240643
11718.0,24244.0,0.08664600564019555
11728.0,24248.0,0.04091331880105471
11738.0,24237.0,-0.006545631202702126
11748.0,24221.0,-0.053966318984306275
11758.0,24232.0,-0.0995281219402018
11768.0,24224.0,-0.14147508237783707
11778.0,24218.0,-0.17822902569098054
11788.0,24225.0,-0.20848488606067375
11797.0,24225.0,-0.2312823230276062
11807.0,24224.0,-0.24605115917209777
11817.0,24217.0,-0.2526326050751239
11827.0,24216.0,-0.2512784305159932
11837.0,24228.0,-0.2426259503369665
11847.0,24222.0,-0.22764597116735727
11858.0,24229.0,-0.20756664167057473
11868.0,24235.0,-0.18378206026705035
11878.0,24228.0,-0.1577563298455179
11888.0,24226.0,-0.13093262340410827
11898.0,24229.0,-0.10465227844601858
11908.0,24242.0,-0.08008341239712079
11918.0,24234.0,-0.05815935962480571
11928.0,24239.0,-0.039533397630940485
11937.0,24235.0,-0.024558053704570787
11947.0,24233.0,-0.01329217355816871
11957.0,24221.0,-0.0055322585630454835
11967.0,24235.0,-0.000858967534720471
11977.0,24233.0,0.0013127680025396752
11987.0,24237.0,0.0016869025069489025
11998.0,24229.0,0.0010414036097287375
12008.0,24232.0,0.00018162112947354953
12018.0,24235.0,-0.0001077259930508926
12028.0,24229.0,0.0008914708660306763
12038.0,24228.0,0.0037895503721483946
12048.0,24236.0,0.009055271563135313
12058.0,24229.0,0.016992341935626626
12068.0,24235.0,0.0277274517810609
12077.0,24237.0,0.04120840103354797
12087.0,24240.0,0.057209493066239334
12097.0,24227.0,0.07534029692021899
12107.0,24234.0,0.09505544609521906
12117.0,24238.0,0.11566831984267616
12127.0,24236.0,0.13637354627368156
12138.0,24241.0,0.15627886814396116
12148.0,24237.0,0.17444240033442956
12158.0,24239.0,0.18991132600282626
12168.0,24236.0,0.20176048263259505
12178.0,24241.0,0.20913134812997622
12188.0,24246.0,0.2112719083379534
12198.0,24241.0,0.2075748551564391
12208.0,24240.0,0.19760838651169857
12217.0,24241.0,0.1811349266011377
12227.0,24233.0,0.15811745797272272
12237.0,24226.0,0.1287170502323197
12247.0,24240.0,0.09328804486238701
12257.0,24231.0,0.05237750830595229
12267.0,24231.0,0.006730349095062729
12278.0,24237.0,-0.0427042821119455
12288.0,24241.0,-0.09477148517237709
12298.0,24237.0,-0.14812213990485068
12308.0,24218.0,-0.2012477395550395
12318.0,24221.0,-0.2525429570395992
12328.0,24220.0,-0.30038762872638136
12338.0,24219.0,-0.3432331841646939
12348.0,24217.0,-0.3796832025270295
12357.0,24218.0,-0.4085648524626811
12367.0,24216.0,-0.42899052354987727
12377.0,24205.0,-0.4404083889969134
12387.0,24207.0,-0.44263797580754155
12397.0,24210.0,-0.43588265784140223
12407.0,24218.0,-0.42071074773589245
12418.0,24224.0,-0.39800448501076696
12428.0,24227.0,-0.3688870535719399
12438.0,24219.0,-0.33464372384519786
12448.0,24218.0,-0.29665010632123284
12458.0,24215.0,-0.2563104827131426
12468.0,24230.0,-0.21500032410998487
12478.0,24230.0,-0.17400737608553257
12488.0,24231.0,-0.13447410768301366
12497.0,24230.0,-0.09735100478379453
12507.0,24232.0,-0.06336842881658596
12517.0,24223.0,-0.03302829585473409
12527.0,24227.0,-0.006611249345286901
12537.0,24228.0,0.015808556860359934
12547.0,24235.0,0.034348897967268234
12558.0,24237.0,0.04930770067885276
12568.0,24239.0,0.061149527142313816
12578.0,24234.0,0.07048243285970937
12588.0,24232.0,0.07801987000265273
12598.0,24225.0,0.08452905158172767
12608.0,24231.0,0.09077405856628072
12618.0,24231.0,0.09746454941981071
12628.0,24232.0,0.10521751219955298
12637.0,24236.0,0.11453333526273506
12647.0,24234.0,0.12578328734241745
12657.0,24235.0,0.1392044331507869
12667.0,24233.0,0.15489903047177023
12677.0,24237.0,0.17283757276107375
12687.0,24240.0,0.19286580580407864
12698.0,24233.0,0.2147149288187926
12708.0,24248.0,0.23801271261322376
12718.0,24240.0,0.2622928388083712
12728.0,24233.0,0.28699956959969164
12738.0,24230.0,0.3114874622737338
12748.0,24245.0,0.3350227169243058
12758.0,24237.0,0.3567955786709398
12768.0,24243.0,0.3759466862412851
12777.0,24245.0,0.3916028809876288
12787.0,24245.0,0.402916477472913
12797.0,24241.0,0.40910297017529906
12807.0,24238.0,0.40947391561446733
12817.0,24239.0,0.40346575583934235
12827.0,24238.0,0.3906689439345293
12838.0,24242.0,0.37086115923742136
12848.0,24245.0,0.3440441340635692
12858.0,24244.0,0.3104783826252349
12868.0,24236.0,0.2707069448853895
12878.0,24241.0,0.22556087087009755
12888.0,24241.0,0.1761438889925309
12898.0,24229.0,0.12379612196754368
12908.0,24230.0,0.0700371081595632
12917.0,24233.0,0.01649118532885313
12927.0,24218.0,-0.0351986729637903
12937.0,24218.0,-0.0834621748006018
12947.0,24208.0,-0.12688999794551697
12957.0,24223.0,-0.16430718221410237
12967.0,24218.0,-0.19482167320486185
12978.0,24215.0,-0.2178470621415324
12988.0,24222.0,-0.233105900748317
12998.0,24211.0,-0.24062002501063312
13008.0,24218.0,-0.24069101349803573
13018.0,24212.0,-0.23387139927544037
13028.0,24220.0,-0.22092609158117638
13038.0,24216.0,-0.20278436362767807
13048.0,24221.0,-0.18048518521187384
13057.0,24224.0,-0.15512050701452174
13067.0,24221.0,-0.1277818873374482
13077.0,24225.0,-0.09951580992089079
13087.0,24212.0,-0.07129096811050296
13097.0,24221.0,-0.043976049526976126
13107.0,24219.0,-0.018321821404260048
13118.0,24222.0,0.005058995312309974
13128.0,24227.0,0.02571602860066676
13138.0,24234.0,0.043386195374041044
13148.0,24225.0,0.058011672602273724
13158.0,24226.0,0.06974246667367207
13168.0,24224.0,0.07891994804671543
13178.0,24223.0,0.08604490532570025
13188.0,24223.0,0.09173704433914122
13197.0,24236.0,0.09669141738930342
13207.0,24225.0,0.10163284809085014
13217.0,24221.0,0.10726519078654694
13227.0,24216.0,0.11421438953193819
13237.0,24221.0,0.12297278511251275
13247.0,24227.0,0.1338567908628969
13258.0,24228.0,0.1469845945162678
13268.0,24228.0,0.16227088501626855
13278.0,24231.0,0.17943068402773918
13288.0,24223.0,0.19798597414165875
13298.0,24219.0,0.21727371055584044
13308.0,24228.0,0.2364595036643987
13318.0,24225.0,0.2545641893779078
13328.0,24227.0,0.27050721135908923
13337.0,24237.0,0.2831644961975588
13347.0,24236.0,0.29143392721172773
13357.0,24226.0,0.2942987093392279
13367.0,24221.0,0.2908805036994626
13377.0,24226.0,0.28048273959903747
13387.0,24230.0,0.2626319568993227
13398.0,24228.0,0.2371221628136959
13408.0,24233.0,0.20405812669940546
13418.0,24233.0,0.16388787369202815
13428.0,24228.0,0.11741411670844074
13438.0,24215.0,0.06577716340789758
13448.0,24226.0,0.010408500998379935
13458.0,24213.0,-0.04703855148607693
13468.0,24214.0,-0.10477306267605932
13478.0,24216.0,-0.16095979634085184
13487.0,24203.0,-0.21381706768848566
13497.0,24201.0,-0.26171406475623177
13507.0,24197.0,-0.30325989576961665
13517.0,24199.0,-0.3373733418476195
13527.0,24196.0,-0.3633232563421153
13538.0,24206.0,-0.3807352850597762
13548.0,24211.0,-0.38956782485822633
13558.0,24217.0,-0.3900679397030356
13568.0,24208.0,-0.3827242688161113
13578.0,24194.0,-0.36823254556923707
13588.0,24196.0,-0.34747700481121013
13598.0,24195.0,-0.32151549066208224
13608.0,24206.0,-0.29155065318294415
13618.0,24210.0,-0.25887799414214596
13627.0,24215.0,-0.22481519752915208
13637.0,24216.0,-0.19062640898657815
13647.0,24206.0,-0.15745592347300175
13657.0,24211.0,-0.12627903966217688
13667.0,24217.0,-0.09786892694719034
13678.0,24217.0,-0.07277511725234134
13688.0,24219.0,-0.05131354202116406
13698.0,24216.0,-0.03357239446150028
13708.0,24213.0,-0.01943661074063344
13718.0,24206.0,-0.008628206417200274
13728.0,24211.0,-0.0007538296821067688
13738.0,24214.0,0.0046518162304053845
13748.0,24221.0,0.00809432308522274
13758.0,24216.0,0.010098853360184212
13767.0,24222.0,0.011193150839888907
13777.0,24221.0,0.011886864592466661
13787.0,24209.0,0.012643092010455843
13797.0,24210.0,0.013842989292931157
13807.0,24215.0,0.015750727175727574
13818.0,24215.0,0.018488896025823195
13828.0,24223.0,0.022029191608310492
13838.0,24221.0,0.02619471244121909
13848.0,24212.0,0.030666003815072645
13858.0,24214.0,0.03498587653977382
13868.0,24213.0,0.03856543764578717
13878.0,24214.0,0.040698609850033284
13888.0,24213.0,0.040590768122588716
13898.0,24217.0,0.0374028168870709
13907.0,24218.0,0.030308780557202597
13917.0,24222.0,0.018562090396583315
13927.0,24214.0,0.0015630992203575327
13937.0,24217.0,-0.021079616846726927
13947.0,24211.0,-0.04949802650163541
13958.0,24217.0,-0.08352344268090744
13968.0,24221.0,-0.12265513141284348
13978.0,24219.0,-0.16604264060022847
13988.0,24215.0,-0.21249034646021223
13998.0,24210.0,-0.2604921752623047
14008.0,24206.0,-0.3082978427504304
14018.0,24208.0,-0.3540045936814425
14028.0,24204.0,-0.39566549323751266
14038.0,24197.0,-0.4314064761422868
14047.0,24199.0,-0.4595451112673
14057.0,24192.0,-0.4787022616654349
14067.0,24188.0,-0.4878959726881461
14077.0,24195.0,-0.48660666416409176
14087.0,24196.0,-0.4748045293202118
14098.0,24197.0,-0.4529354805528841
14108.0,24212.0,-0.4218694028021826
14118.0,24207.0,-0.3828204710929536
14128.0,24213.0,-0.3372530787222078
14138.0,24208.0,-0.28678684708650776
14148.0,24211.0,-0.23310889383533331
14158.0,24216.0,-0.17789502227622248
14168.0,24210.0,-0.12273857601053269
14178.0,24224.0,-0.06908622381840053
14187.0,24225.0,-0.01818178813372861
14197.0,24227.0,0.028977645502792578
14207.0,24214.0,0.0716669003678455
14217.0,24225.0,0.1094367593073812
14227.0,24232.0,0.14210219451754838
14238.0,24228.0,0.169721017598869
14248.0,24223.0,0.19256307702115683
14258.0,24231.0,0.2110682666190983
14268.0,24226.0,0.2257963411985437
14278.0,24218.0,0.23737473659211797
14288.0,24228.0,0.24645112002792618
14298.0,24231.0,0.2536580003781898
14308.0,24236.0,0.2595933161676154
14318.0,24232.0,0.26481277210158666
14327.0,24237.0,0.2698249209963321
14337.0,24234.0,0.27508213615767646
14347.0,24228.0,0.2809651303027518
14357.0,24231.0,0.28776282290545674
14367.0,24232.0,0.2956530417652303
14378.0,24235.0,0.30469012337613444
14388.0,24243.0,0.31480131628890473
14398.0,24233.0,0.3257883149513432
14408.0,24235.0,0.33732829002540654
14418.0,24235.0,0.348972542016108
14428.0,24228.0,0.3601467161448131
14438.0,24231.0,0.370159498689895
14448.0,24242.0,0.37822642530360073
14458.0,24240.0,0.383511428444697
14467.0,24248.0,0.38518076079479213
14477.0,24246.0,0.3824573360876326
14487.0,24228.0,0.37466384713978107
14497.0,24226.0,0.3612512061687556
14507.0,24241.0,0.34182095703412413
14518.0,24237.0,0.31615480480942665
14528.0,24241.0,0.28425471506176114
14538.0,24247.0,0.2463842135617889
14548.0,24241.0,0.20309701488614784
14558.0,24231.0,0.1552414141311902
14568.0,24224.0,0.10393583802206813
14578.0,24232.0,0.050521569023633445
14588.0,24232.0,-0.003495498246201511
14598.0,24230.0,-0.05650731426705943
14607.0,24227.0,-0.10687226391930951
14617.0,24228.0,-0.1529939421658897
14627.0,24211.0,-0.19340994552786778
14637.0,24209.0,-0.22688412517954157
14647.0,24213.0,-0.2524888056862914
14658.0,24215.0,-0.2696608084945134
14668.0,24219.0,-0.2782218231323182
14678.0,24224.0,-0.2783650778448229
14688.0,24229.0,-0.27061831119740737
14698.0,24217.0,-0.2557958314877796
14708.0,24210.0,-0.234949269679512
14718.0,24223.0,-0.2093169489330168
14728.0,24225.0,-0.18026378604428542
14738.0,24228.0,-0.1492072398364905
14747.0,24230.0,-0.11753519315015268
14757.0,24235.0,-0.08652672414049785
14767.0,24231.0,-0.05728515187833561
14777.0,24229.0,-0.030689390125339406
14787.0,24230.0,-0.0073651307267593395
14798.0,24235.0,0.012327440580816031
14808.0,24234.0,0.02829371211615073
14818.0,24238.0,0.040693540992444405
14828.0,24238.0,0.04991685230939618
14838.0,24229.0,0.056543753274057515
14848.0,24230.0,0.06129038218584474
14858.0,24235.0,0.06494712025786926
14868.0,24234.0,0.06831809160526751
14878.0,24229.0,0.07216736288194034
14887.0,24242.0,0.07717313255125886
14897.0,24236.0,0.08388985281684945
14907.0,24234.0,0.09271680307709437
14917.0,24229.0,0.10387134517774821
14927.0,24234.0,0.11736941814552715
14938.0,24236.0,0.13302014824178673
14948.0,24244.0,0.15043914512152246
14958.0,24248.0,0.16907746050098685
14968.0,24246.0,0.18825623383266143
14978.0,24238.0,0.2071956293923235
14988.0,24233.0,0.22503300377417265
14998.0,24240.0,0.24083588277980267
15008.0,24238.0,0.2536214022988683
15018.0,24245.0,0.26239034897912517
15028.0,24248.0,0.2661754275802709
15037.0,24247.0,0.2640966508584083
15047.0,24237.0,0.25541466005317814
15057.0,24235.0,0.239576789452576
15067.0,24244.0,0.21625857844391366
15078.0,24245.0,0.1854065371668288
15088.0,24244.0,0.14728156767706135
15098.0,24249.0,0.10249386956501749
15108.0,24247.0,0.05201744197799168
15118.0,24240.0,-0.002825708507469637
15128.0,24229.0,-0.06041695490306987
15138.0,24226.0,-0.11892475378557481
15148.0,24228.0,-0.17640796314972182
15158.0,24229.0,-0.23092358697582563
15168.0,24223.0,-0.2806297948745733
15177.0,24228.0,-0.3238822099651148
15187.0,24215.0,-0.35932343015095886
15197.0,24205.0,-0.38596266469678314
15207.0,24214.0,-0.4032361893203036
15218.0,24214.0,-0.4110348748075482
15228.0,24224.0,-0.4096897009378637
15238.0,24227.0,-0.39991871772676524
15248.0,24229.0,-0.38274965976749303
15258.0,24222.0,-0.3594353182262662
15268.0,24221.0,-0.331373752892491
15278.0,24223.0,-0.30003604586359905
15288.0,24226.0,-0.26689750009036534
15298.0,24231.0,-0.23336869959302803
15308.0,24230.0,-0.20072813768978381
15317.0,24232.0,-0.17006222832863035
15327.0,24235.0,-0.14221863100328272
15337.0,24231.0,-0.11777665947548346
15347.0,24234.0,-0.09703635697831454
15358.0,24229.0,-0.08002552442187114
15368.0,24233.0,-0.06652145441204031
15378.0,24236.0,-0.05608292815956541
15388.0,24236.0,-0.048089594381767665
15398.0,24237.0,-0.04178909471585322
15408.0,24224.0,-0.036353419852056826
15418.0,24227.0,-0.030941945677869172
15428.0,24235.0,-0.02476218975257396
15438.0,24231.0,-0.01711828415109462
15448.0,24236.0,-0.007443756669893427
15457.0,24238.0,0.004678006719201429
15467.0,24238.0,0.01950036414123951
15477.0,24235.0,0.03710249396300938
15487.0,24224.0,0.057378928899904244
15498.0,24233.0,0.08003352605915942
15508.0,24242.0,0.10458685277389616
15518.0,24244.0,0.1304022209852739
15528.0,24249.0,0.15672441273096302
15538.0,24242.0,0.1827175927086314
15548.0,24241.0,0.2074915211613802
15558.0,24233.0,0.23011434363770372
15568.0,24233.0,0.24961961363804647
15578.0,24243.0,0.2650200126630128
15588.0,24243.0,0.275337245687185
15597.0,24240.0,0.27964848757096744
15607.0,24249.0,0.27714235106888085
15617.0,24236.0,0.2671765217113466
15627.0,24238.0,0.24933223658188958
15638.0,24247.0,0.2234643473991919
15648.0,24238.0,0.18974685004877348
15658.0,24246.0,0.1487103747702093
15668.0,24238.0,0.10126446827924974
15678.0,24247.0,0.048697642526231134
15688.0,24243.0,-0.007350699156835282
15698.0,24228.0,-0.0649520062896126
15708.0,24227.0,-0.12198574067735422
15718.0,24218.0,-0.17626427086278865
15728.0,24221.0,-0.2256693501824705
15738.0,24219.0,-0.2682835410520096
15747.0,24215.0,-0.30250561469267623
15757.0,24210.0,-0.32714413332053466
15767.0,24209.0,-0.34148417645069995
15778.0,24209.0,-0.34532026145204914
15788.0,24219.0,-0.3389491166920985
15798.0,24221.0,-0.32312194814969647
15808.0,24223.0,-0.29896467983124825
15818.0,24232.0,-0.2678807898968428
15828.0,24224.0,-0.23145212589737557
15838.0,24218.0,-0.1913494970032678
15848.0,24225.0,-0.14925734730437223
15858.0,24222.0,-0.10680852999552819
15868.0,24228.0,-0.06552294791978722
15878.0,24236.0,-0.02674837730638834
15887.0,24227.0,0.00839244386544016
15897.0,24240.0,0.03904150866886388
15907.0,24221.0,0.06462654299958312
15918.0,24232.0,0.08486287098428993
15928.0,24233.0,0.09974093238334229
15938.0,24231.0,0.10950527090270333
15948.0,24229.0,0.11462719694524058
15958.0,24234.0,0.11577083597623636
15968.0,24234.0,0.11375308401043922
15978.0,24226.0,0.10949802985321966
15988.0,24222.0,0.10398646673708242
15998.0,24232.0,0.09820480244784553
16008.0,24231.0,0.09310032905887225
16018.0,24230.0,0.08954545749871272
16027.0,24232.0,0.08830705129503698
16037.0,24230.0,0.0900159094691128
16047.0,24224.0,0.09513457953042613
16058.0,24219.0,0.10392572536520628
16068.0,24227.0,0.11642788566086712
16078.0,24232.0,0.13244716150072774
16088.0,24232.0,0.1515678022959023
16098.0,24232.0,0.17317600971006283
16108.0,24234.0,0.19648809295091896
16118.0,24228.0,0.22057737212066333
16128.0,24223.0,0.24439935945941038
16138.0,24232.0,0.26681960859574
16148.0,24232.0,0.28665084047667894
16158.0,24231.0,0.3027023166363474
16167.0,24240.0,0.31383804101775037
16177.0,24239.0,0.3190366432273356
16187.0,24224.0,0.3174449918198222
16198.0,24228.0,0.3084206672621894
16208.0,24233.0,0.2915659415152868
16218.0,24231.0,0.26675965183946393
16228.0,24232.0,0.23418785074293672
16238.0,24233.0,0.19436714666461927
16248.0,24233.0,0.148153011514976
16258.0,24225.0,0.09672661822481872
16268.0,24228.0,0.041556082214070166
16278.0,24224.0,-0.01566835341133971
16288.0,24209.0,-0.07312229371632525
16298.0,24213.0,-0.12895210746439897
16307.0,24204.0,-0.18138582876321496
16317.0,24208.0,-0.22883658236901647
16327.0,24198.0,-0.2699877490569317
16338.0,24201.0,-0.30385311700798406
16348.0,24204.0,-0.32980744224280234
16358.0,24205.0,-0.34758567725277856
16368.0,24209.0,-0.35725467719635
16378.0,24213.0,-0.35916679264625484
16388.0,24207.0,-0.35390734952594155
16398.0,24200.0,-0.34224636668608177
16408.0,24195.0,-0.3250978219268368
16418.0,24209.0,-0.30348040647327773
16428.0,24207.0,-0.27847097310109453
16438.0,24209.0,-0.25114921619040015
16448.0,24206.0,-0.22254038956908118
16457.0,24219.0,-0.1935636640664568
16467.0,24207.0,-0.1649909364770665
16478.0,24202.0,-0.13741938816001967
16488.0,24215.0,-0.11125751820293546
16498.0,24205.0,-0.08671927055292306
16508.0,24217.0,-0.0638212217858476
16518.0,24221.0,-0.04238326411939192
16528.0,24218.0,-0.02203830313002942
16538.0,24219.0,-0.0022588991694765487
16548.0,24204.0,0.017593995206037005
16558.0,24216.0,0.03820359332435498
16568.0,24214.0,0.06022217503746472
16578.0,24204.0,0.08419957069467136
16588.0,24215.0,0.11052254241176637
16597.0,24221.0,0.13937045906136908
16607.0,24217.0,0.1706897740841514
16618.0,24207.0,0.20418441724634406
16628.0,24213.0,0.23931974572695972
16638.0,24228.0,0.27534439544082057
16648.0,24219.0,0.3113343961040683
16658.0,24221.0,0.346255142367963
16668.0,24231.0,0.3790319584961636
16678.0,24230.0,0.4086222503774723
16688.0,24229.0,0.434082867963985
16698.0,24230.0,0.45462497851324585
16708.0,24226.0,0.4696514013384067
16718.0,24232.0,0.47877627785299726
16728.0,24233.0,0.4818289621748075
16737.0,24231.0,0.4788422832185351
16747.0,24227.0,0.4700232552352804
16758.0,24210.0,0.45570667758679817
16768.0,24219.0,0.4362999526406423
16778.0,24222.0,0.41223442913416064
16788.0,24223.0,0.38393577581901844
16798.0,24215.0,0.35181484284841835
16808.0,24224.0,0.31627309974315654
16818.0,24223.0,0.2777171015142512
16828.0,24204.0,0.23657772261762217
16838.0,24221.0,0.19333102728644036
16848.0,24219.0,0.14852083329892446
16858.0,24223.0,0.10278193205363156
16868.0,24226.0,0.056855039979049705
16877.0,24220.0,0.011579057011000952
16887.0,24205.0,-0.032150726186398165
16898.0,24188.0,-0.07345870013192293
16908.0,24189.0,-0.11158302743010383
16918.0,24196.0,-0.14595928643813286
16928.0,24197.0,-0.17626872273208904
16938.0,24203.0,-0.2024430901668116
16948.0,24202.0,-0.22463410459616473
16958.0,24207.0,-0.24316211344044675
16968.0,24198.0,-0.25845801623704184
16978.0,24202.0,-0.27100854749853104
16988.0,24203.0,-0.28130974970738776
16998.0,24201.0,-0.2898301247345723
17008.0,24200.0,-0.2969850176725093
17017.0,24204.0,-0.3031241505465162
17027.0,24193.0,-0.30853291985473896
17038.0,24188.0,-0.31344543644428724
17048.0,24193.0,-0.3180625526150622
17058.0,24198.0,-0.3225643494967008
17068.0,24196.0,-0.32711010916673827
17078.0,24204.0,-0.33182771576330816
17088.0,24198.0,-0.33680032500776813
17098.0,24198.0,-0.3420581790105919
17108.0,24195.0,-0.34757974987757234
17118.0,24189.0,-0.3533010223027684
17128.0,24191.0,-0.35912694204624185
17138.0,24196.0,-0.364937155973811
17148.0,24203.0,-0.37058121702124164
17157.0,24199.0,-0.37586613846610634
17167.0,24201.0,-0.3805457825816654
17178.0,24186.0,-0.384320705128475
17188.0,24192.0,-0.3868490740599236
17198.0,24199.0,-0.3877610793229483
17208.0,24202.0,-0.38666915566122456
17218.0,24199.0,-0.3831748816077163
17228.0,24196.0,-0.3768803249569834
17238.0,24200.0,-0.36740929747143997
17248.0,24193.0,-0.35443735367809037
17258.0,24188.0,-0.3377251580621406
17268.0,24201.0,-0.3171476137840784
17278.0,24196.0,-0.29271085549460146
17288.0,24202.0,-0.2645536432941811
17297.0,24214.0,-0.23293634627414653
17307.0,24208.0,-0.1982253200248283
17318.0,24205.0,-0.16088238766339075
17328.0,24201.0,-0.12146564216845089
17338.0,24207.0,-0.08063848750375768
17348.0,24204.0,-0.03917695287453162
17358.0,24213.0,0.002033407322405139
17368.0,24226.0,0.042013372325172035
17378.0,24218.0,0.07971332119718182
17388.0,24211.0,0.1140334730288962
17398.0,24209.0,0.1438350032622632
17408.0,24220.0,0.1679477423528718
17418.0,24212.0,0.18518606291882622
17428.0,24216.0,0.1943795869020788
17437.0,24214.0,0.19441920325203968
17447.0,24223.0,0.18431741762079717
17458.0,24215.0,0.1632806699365876
17468.0,24213.0,0.13078831878915234
17478.0,24217.0,0.0866729503158337
17488.0,24219.0,0.031198910823730525
17498.0,24220.0,-0.03486549562649692
17508.0,24219.0,-0.11019185262746892
17518.0,24220.0,-0.19286416518021823
17528.0,24212.0,-0.2803912191751844
17538.0,24208.0,-0.3697655379631643
17548.0,24201.0,-0.45756932077867957
17558.0,24203.0,-0.5401210422720365
17568.0,24196.0,-0.6136528325679397
17577.0,24182.0,-0.6745084343700437
17587.0,24191.0,-0.7193499100358172
17598.0,24180.0,-0.7453576231653274
17608.0,24181.0,-0.750407408602254
17618.0,24182.0,-0.733211822137669
17628.0,24185.0,-0.6934152292977246
17638.0,24188.0,-0.6316358468189277
17648.0,24188.0,-0.5494526249766681
17658.0,24191.0,-0.4493380652179629
17668.0,24196.0,-0.3345383930897549
17678.0,24200.0,-0.2089025458056038
17688.0,24221.0,-0.07666417408272594
17698.0,24231.0,0.057812014404130085
17708.0,24244.0,0.19029749233326992
17718.0,24250.0,0.3169497946784128
17727.0,24249.0,0.43451372545036077
17738.0,24249.0,0.5404515773448985
17748.0,24240.0,0.6329944812290651
17758.0,24241.0,0.7111220867148131
17768.0,24243.0,0.7744888837842393
17778.0,24245.0,0.8233187911128247
17788.0,24245.0,0.8582853661971511
17798.0,24250.0,0.8803883653338708
17808.0,24243.0,0.8908330834053155
17818.0,24233.0,0.8909182478169027
17828.0,24246.0,0.8819413860495943
17838.0,24239.0,0.865133527834287
17848.0,24252.0,0.8416310687918995
17858.0,24254.0,0.812482405795997
17867.0,24258.0,0.7786772861475186
17878.0,24250.0,0.7411817353751788
17888.0,24242.0,0.7009634745051355
17898.0,24248.0,0.6590019466650199
17908.0,24242.0,0.6162862942180583
17918.0,24243.0,0.5738065237394662
17928.0,24236.0,0.5325401066322367
17938.0,24243.0,0.4934349708930395
17948.0,24243.0,0.45738996970782975
17958.0,24230.0,0.4252321212725964
17968.0,24235.0,0.3976890910695439
17978.0,24237.0,0.37535890823735557
17988.0,24236.0,0.3586814255962738
17998.0,24233.0,0.3479130189099182
18007.0,24238.0,0.34310282787823926
18018.0,24241.0,0.3440691806341937
18028.0,24222.0,0.35037553355900475
18038.0,24226.0,0.36130750410962814
18048.0,24226.0,0.3758596364131967
18058.0,24236.0,0.39274533465901623
18068.0,24242.0,0.4104371018906444
18078.0,24237.0,0.4272314808826869
18088.0,24237.0,0.44132582326802067
18098.0,24234.0,0.45089700815356815
18108.0,24231.0,0.45418019502539114
18118.0,24236.0,0.4495510340233596
18128.0,24241.0,0.4356144119567195
18138.0,24242.0,0.41129738474996647
18147.0,24242.0,0.37593684399351235
18158.0,24244.0,0.3293489258153446
18168.0,24228.0,0.27186918691632944
18178.0,24231.0,0.204358752660724
18188.0,24229.0,0.1281793986333924
18198.0,24230.0,0.04514440053714683
18208.0,24230.0,-0.04255136686104002
18218.0,24226.0,-0.1324244067324509
18228.0,24213.0,-0.2218225138026879
18238.0,24201.0,-0.30807015360722234
18248.0,24194.0,-0.3886270445420263
18258.0,24201.0,-0.46123813589922896
18268.0,24196.0,-0.52405348970016
18278.0,24200.0,-0.5757070437904687
18287.0,24204.0,-0.6153549544384853
18298.0,24198.0,-0.642680812668868
18308.0,24193.0,-0.6578764681440527
18318.0,24193.0,-0.6616036839979701
18328.0,24199.0,-0.6549358971101241
18338.0,24201.0,-0.6392779940135951
18348.0,24207.0,-0.6162675866465053
18358.0,24205.0,-0.5876679219198878
18368.0,24210.0,-0.5552647481829295
18378.0,24208.0,-0.5207772638563931
18388.0,24200.0,-0.48578907546571215
18398.0,24206.0,-0.45169961282567306
18408.0,24204.0,-0.4196908884169262
18418.0,24208.0,-0.3907027530231805
18427.0,24211.0,-0.3654130534108677
18438.0,24217.0,-0.3442238204039215
18448.0,24216.0,-0.3272584292942347
18458.0,24202.0,-0.31437601505315305
18468.0,24208.0,-0.3052049019520376
18478.0,24211.0,-0.2991881865177916
18488.0,24216.0,-0.2956315460233901
18498.0,24207.0,-0.293749523004351
18508.0,24210.0,-0.29271250397624254
18518.0,24207.0,-0.2916948656222747
18528.0,24205.0,-0.28991992514833737
18538.0,24215.0,-0.2866959632723762
18548.0,24211.0,-0.28144043269462354
18558.0,24209.0,-0.2736940300844895
18567.0,24213.0,-0.2631284325288528
18578.0,24215.0,-0.24954974527103999
18588.0,24212.0,-0.23289838640725474
18598.0,24209.0,-0.213246776201664
18608.0,24216.0,-0.1907950637159413
18618.0,24209.0,-0.16586257012947173
18628.0,24221.0,-0.138872613800534
18638.0,24216.0,-0.11033097227035989
18648.0,24222.0,-0.08080105314768089
18658.0,24212.0,-0.05087993453456776
18668.0,24216.0,-0.021176965952894613
18678.0,24220.0,0.007708028885657197
18688.0,24223.0,0.035211339135135536
18698.0,24228.0,0.06083676671869374
18707.0,24233.0,0.08418561896477801
18718.0,24229.0,0.1049756025487203
18728.0,24223.0,0.12303999459864988
18738.0,24218.0,0.13830496150841187
18748.0,24226.0,0.15075226879082523
18758.0,24219.0,0.1603795482782587
18768.0,24220.0,0.16716769872757906
18778.0,24226.0,0.17106039297023873
18788.0,24231.0,0.17195750207894067
18798.0,24212.0,0.16972048244308127
18808.0,24228.0,0.16418603376766175
18818.0,24227.0,0.15518749879841168
18828.0,24227.0,0.14258441180436013
18838.0,24221.0,0.12629582389959312
18847.0,24223.0,0.1063311761955582
18858.0,24227.0,0.0828164982095566
18868.0,24221.0,0.05601589864075616
18878.0,24218.0,0.026346518464889602
18888.0,24221.0,-0.00561500249257428
18898.0,24212.0,-0.03913369995259551
18908.0,24229.0,-0.07332305944098737
18918.0,24227.0,-0.10715854465601361
18928.0,24217.0,-0.13950509596090907
18938.0,24213.0,-0.16916785791317884
18948.0,24199.0,-0.1949671032990134
18958.0,24209.0,-0.21582513326346095
18968.0,24202.0,-0.2308467141140922
18978.0,24206.0,-0.23937888537023339
18988.0,24210.0,-0.24104445903020316
18998.0,24218.0,-0.23575049480186033
19008.0,24214.0,-0.22367868589437667
19018.0,24202.0,-0.20526774220856733
19028.0,24209.0,-0.18119342409353406
19038.0,24213.0,-0.1523424726107235
19048.0,24213.0,-0.11977356039911297
19058.0,24217.0,-0.0846643870696329
19068.0,24223.0,-0.0482503989766137
19078.0,24222.0,-0.011762750499445107
19088.0,24210.0,0.023627247232112267
19098.0,24223.0,0.0568539132970591
19108.0,24221.0,0.08699616896291144
19118.0,24229.0,0.11331344641206333
19128.0,24234.0,0.13527594939668844
19138.0,24227.0,0.15258058390866927
19148.0,24214.0,0.16514442431601478
19158.0,24215.0,0.1730765705117797
19168.0,24221.0,0.1766412735992493
19178.0,24225.0,0.17622836788071264
19188.0,24226.0,0.1723376433194219
19198.0,24230.0,0.1655720977926499
19208.0,24227.0,0.15663028005818103
19218.0,24226.0,0.14628952532298842
19228.0,24220.0,0.13537629644322455
19238.0,24220.0,0.12472543485647518
19248.0,24219.0,0.11513481537151221
19258.0,24217.0,0.10732330563091849
19268.0,24226.0,0.10189789674147373
19278.0,24227.0,0.09933150092460667
19288.0,24215.0,0.09994784510228143
19298.0,24212.0,0.10390913351865892
19308.0,24219.0,0.11120886957141374
19318.0,24227.0,0.12167819785030835
19328.0,24223.0,0.13500951880490342
19338.0,24231.0,0.15079091845957454
19348.0,24228.0,0.1685404303915733
19358.0,24225.0,0.18773155940282013
19368.0,24217.0,0.2078067544862122
19378.0,24221.0,0.22818255520197225
19388.0,24230.0,0.24825567575838223
19398.0,24231.0,0.2674170307380642
19408.0,24235.0,0.2850714733621468
19418.0,24229.0,0.3006540414704384
19428.0,24223.0,0.31363515745285475
19438.0,24222.0,0.3235154492445122
19448.0,24226.0,0.3298189876433502
19458.0,24231.0,0.332095160789199
19468.0,24229.0,0.3299330029163528
19478.0,24226.0,0.32298419529479455
19488.0,24229.0,0.3109891395856669
19498.0,24234.0,0.2938030973539469
19508.0,24222.0,0.2714202275087316
19518.0,24225.0,0.24399250276252923
19528.0,24226.0,0.21184250093109122
19538.0,24226.0,0.17547174197375245
19548.0,24227.0,0.1355644400825424
19558.0,24233.0,0.09298220584816248
19568.0,24222.0,0.048742607366439906
19578.0,24210.0,0.003975713632273266
19588.0,24214.0,-0.04013995197901311
19598.0,24210.0,-0.08245087182195159
19608.0,24209.0,-0.12189751510248104
19618.0,24214.0,-0.15757049050217145
19628.0,24210.0,-0.18875210183925528
19638.0,24205.0,-0.21494519252489905
19648.0,24200.0,-0.2358908293345406
19658.0,24204.0,-0.2515720966868407
19668.0,24209.0,-0.26219826496952325
19678.0,24210.0,-0.2681673598294853
19688.0,24215.0,-0.2700131874806058
19698.0,24215.0,-0.26834839363170543
19708.0,24206.0,-0.2638152149162485
19718.0,24201.0,-0.2570503801427128
19728.0,24205.0,-0.24866158822191065
19738.0,24211.0,-0.23920639854586406
19748.0,24210.0,-0.22916690352691915
19758.0,24216.0,-0.21892213682200418
19768.0,24213.0,-0.208725933435573
19778.0,24213.0,-0.19869781825711758
19788.0,24205.0,-0.1888306273170974
19798.0,24209.0,-0.17901276381039297
19808.0,24214.0,-0.1690582120989886
19818.0,24206.0,-0.15873769881158162
19828.0,24214.0,-0.14780836482227525
19838.0,24216.0,-0.13604181673999288
19848.0,24209.0,-0.1232511482107493
19858.0,24202.0,-0.10931744256089701
19868.0,24207.0,-0.09421229754951041
19878.0,24219.0,-0.07800770810927828
19888.0,24212.0,-0.060867361793379385
19898.0,24213.0,-0.04302272709310575
19908.0,24219.0,-0.024741657793526276
19918.0,24223.0,-0.006294770972454477
19928.0,24218.0,0.012075965520998681
19938.0,24213.0,0.030180747292002354
19948.0,24220.0,0.04789507807969133
19958.0,24223.0,0.06516554010354708
19968.0,24224.0,0.08201086760760483
19978.0,24229.0,0.09851550747864797
19988.0,24222.0,0.11480956261669038
19998.0,24215.0,0.13103148543758647
20008.0,24211.0,0.14727734555786512
20018.0,24219.0,0.1635491241081056
20028.0,24218.0,0.1797169762479902
20038.0,24224.0,0.19550377842041272
20048.0,24230.0,0.21049063317400385
20058.0,24224.0,0.22413576107150948
20068.0,24215.0,0.2357984158563571
20078.0,24223.0,0.24476495023040334
20088.0,24225.0,0.25028154928840235
20098.0,24224.0,0.251598514525098
20108.0,24226.0,0.248024487244162
20118.0,24228.0,0.23898440496890616
20128.0,24224.0,0.2240749144123994
20138.0,24226.0,0.20311213479708798
20148.0,24224.0,0.17616811565908785
20158.0,24224.0,0.1435938746600677
20168.0,24225.0,0.1060273798726909
20178.0,24218.0,0.06438461084676958
20188.0,24224.0,0.019832299885536798
20198.0,24219.0,-0.026257907971954004
20208.0,24216.0,-0.07237359903092681
20218.0,24210.0,-0.1169429832635368
20228.0,24208.0,-0.15842923489648011
20238.0,24199.0,-0.19542891071910976
20248.0,24200.0,-0.2267625368137767
20258.0,24206.0,-0.2515452023792876
20268.0,24209.0,-0.2692292112078941
20278.0,24205.0,-0.27961936003719234
20288.0,24192.0,-0.2828673605218338
20298.0,24208.0,-0.2794488824165925
20308.0,24212.0,-0.27012076858862594
20318.0,24209.0,-0.25585871147775
20328.0,24210.0,-0.23778449028546425
20338.0,24213.0,-0.21709423458483812
20348.0,24208.0,-0.19499410412236176
20358.0,24205.0,-0.17264491169187818
20368.0,24217.0,-0.15111424603726928
20378.0,24209.0,-0.13133356166911814
20388.0,24215.0,-0.11406017794294865
20398.0,24221.0,-0.09984738013253333
20408.0,24214.0,-0.08902700955185527
20418.0,24216.0,-0.0817089078384835
20428.0,24207.0,-0.07779900579397145
20438.0,24203.0,-0.07703159350402806
20448.0,24214.0,-0.07900530771605206
20458.0,24216.0,-0.08321234095915192
20468.0,24219.0,-0.08905828009517523
20478.0,24213.0,-0.09587949064182477
20488.0,24209.0,-0.10296667764405161
20498.0,24204.0,-0.10959621631942815
20508.0,24213.0,-0.11506258325390019
20518.0,24219.0,-0.11870365557661508
20528.0,24215.0,-0.11991764250209758
20538.0,24213.0,-0.11817863490416601
20548.0,24216.0,-0.11305821758831747
20558.0,24212.0,-0.10425472348273847
20568.0,24196.0,-0.09162647396517315
20578.0,24214.0,-0.07522104078566341
20588.0,24210.0,-0.055289295949519084
20598.0,24214.0,-0.03227671760468354
20608.0,24224.0,-0.006793983647072753
20618.0,24220.0,0.0204242267883911
20628.0,24215.0,0.04856189146174811
20638.0,24216.0,0.0767590011581252
20648.0,24224.0,0.10414391945065067
20658.0,24225.0,0.1298643613966092
20668.0,24219.0,0.1531166645451311
20679.0,24218.0,0.17316971106504492
20688.0,24229.0,0.18938294456526733
20698.0,24229.0,0.2012208379114808
20708.0,24216.0,0.20826297775466227
20718.0,24215.0,0.21020696127901436
20728.0,24218.0,0.20686767467587638
20738.0,24230.0,0.1981826372302772
20748.0,24228.0,0.18422779017956656
20758.0,24223.0,0.1652363827535915
20768.0,24219.0,0.14160931871796306
20778.0,24215.0,0.11391221969670903
20788.0,24219.0,0.08286357513149528
20798.0,24221.0,0.04932076822132092
20808.0,24220.0,0.014266065094710107
20819.0,24222.0,-0.021211512362333446
20828.0,24223.0,-0.05594524202617083
20838.0,24206.0,-0.08873621661302222
20848.0,24207.0,-0.11841564384241449
20858.0,24205.0,-0.14391568657041431
20868.0,24207.0,-0.1643349489877816
20878.0,24207.0,-0.17898766785134873
20888.0,24215.0,-0.18743346945194683
20898.0,24210.0,-0.18949106263462592
20908.0,24208.0,-0.1852423510944123
20918.0,24198.0,-0.17503141181446158
20928.0,24207.0,-0.15945577816372797
20938.0,24207.0,-0.13934194125530916
20948.0,24208.0,-0.1156991848260333
20959.0,24213.0,-0.08965292602616981
20968.0,24224.0,-0.062364164320633
20978.0,24223.0,-0.034945467611918156
20988.0,24212.0,-0.008387106808922557
20998.0,24217.0,0.01649588136964198
21008.0,24218.0,0.03909466618743295
21018.0,24223.0,0.059021190255120155
21028.0,24223.0,0.07610926759081038
21038.0,24221.0,0.09039974593309047
21048.0,24217.0,0.10210673098632027
21058.0,24206.0,0.11156698641936437
21068.0,24207.0,0.11918247938236808
21078.0,24226.0,0.12537136577969477
21088.0,24219.0,0.13053839996193553
21099.0,24220.0,0.1350628814444493
21108.0,24223.0,0.13929374361117872
21118.0,24221.0,0.14354377329033843
21128.0,24212.0,0.1480806044069985
21138.0,24217.0,0.15311619012182626
21148.0,24222.0,0.15879989742911838
21158.0,24224.0,0.1652196831463443
21168.0,24223.0,0.17240942677192977
21178.0,24226.0,0.18035528040789084
21188.0,24224.0,0.18899448477554387
21198.0,24215.0,0.1982038477074854
21208.0,24213.0,0.20778016867548102
21218.0,24218.0,0.2174210381514952
21228.0,24220.0,0.2267169539561044
21239.0,24222.0,0.23516062933747478
21248.0,24225.0,0.24217119519056185
21258.0,24229.0,0.24712612717017957
21268.0,24219.0,0.2493927979439705
21278.0,24215.0,0.24835406275205854
21288.0,24218.0,0.24342888656816405
21298.0,24215.0,0.23409539299476195
21308.0,24216.0,0.21992371131542987
21318.0,24229.0,0.2006205887768993
21328.0,24227.0,0.1760806548427391
21338.0,24218.0,0.14643244787524395
21348.0,24220.0,0.11206615151343499
21358.0,24214.0,0.07363732252276212
21368.0,24212.0,0.03204940333676752
21379.0,24220.0,-0.011579528423628192
21388.0,24211.0,-0.05596267458435369
21398.0,24210.0,-0.09970353642420791
21408.0,24201.0,-0.14136860687845076
21418.0,24198.0,-0.17956918856898205
21428.0,24202.0,-0.21304210786693725
21438.0,24196.0,-0.2407184189161297
21448.0,24204.0,-0.2617736561785873
21458.0,24203.0,-0.2756589843348088
21468.0,24200.0,-0.28211691025468794
21478.0,24197.0,-0.28118654746007227
21488.0,24195.0,-0.27320043103394465
21498.0,24199.0,-0.2587699740064485
21508.0,24199.0,-0.23875508535701737
21519.0,24204.0,-0.214216653810242
21528.0,24207.0,-0.18635543274740918
21538.0,24207.0,-0.15644444366507207
21548.0,24206.0,-0.12576310018113931
21558.0,24199.0,-0.09553884262354655
21568.0,24212.0,-0.06689691219431514
21578.0,24202.0,-0.04081533237920344
21588.0,24207.0,-0.01808311639490045
21598.0,24217.0,0.000737682909845346
21608.0,24215.0,0.015343004131860176
21618.0,24215.0,0.025704029714902675
21628.0,24207.0,0.032062335012867024
21638.0,24213.0,0.03489992382132625
21648.0,24206.0,0.0348886282026528
21659.0,24200.0,0.03282680647660515
21668.0,24206.0,0.02957217468709685
21678.0,24212.0,0.02597982882006083
21688.0,24204.0,0.022850772041938052
21698.0,24199.0,0.02089032649094119
21708.0,24211.0,0.020675452032082885
21718.0,24204.0,0.022633524045799602
21728.0,24209.0,0.027034081296913225
21738.0,24210.0,0.033990679374862054
21748.0,24214.0,0.04346801904645795
21758.0,24206.0,0.055289351927942834
21768.0,24201.0,0.06914054390734302
21778.0,24208.0,0.08457239186086399
21788.0,24209.0,0.10100786031769961
21799.0,24213.0,0.11775900103367051
21808.0,24208.0,0.13405159209696332
21818.0,24211.0,0.14905221404188412
21828.0,24208.0,0.16189478673134314
21838.0,24200.0,0.17170748413488954
21848.0,24215.0,0.17764372105721285
21858.0,24209.0,0.17892093314654414
21868.0,24205.0,0.17486678886722437
21878.0,24214.0,0.16496843463076483
21888.0,24212.0,0.14892034553206784
21898.0,24211.0,0.12666632710466302
21908.0,24201.0,0.09842980320069225
21918.0,24213.0,0.06472871124153382
21928.0,24213.0,0.026375057321702124
21939.0,24206.0,-0.015542545540171074
21948.0,24206.0,-0.059699147173755934
21958.0,24203.0,-0.10460055955253592
21968.0,24192.0,-0.14867489910083745
21978.0,24176.0,-0.1903799412390699
21988.0,24189.0,-0.22831076482636706
21998.0,24186.0,-0.2612878293738809
22008.0,24188.0,-0.28841165312977807
22018.0,24191.0,-0.3090831035588914
22028.0,24194.0,-0.32299682602532487
22038.0,24192.0,-0.3301176328014282
22048.0,24185.0,-0.33064923136861313
22058.0,24187.0,-0.3250008750419398
22068.0,24194.0,-0.3137516453847583
22079.0,24187.0,-0.297610231942758
22089.0,24201.0,-0.2773717243277223
22098.0,24198.0,-0.25387718251875113
22108.0,24188.0,-0.22798346877462458
22118.0,24180.0,-0.20054766059506915
22128.0,24190.0,-0.1724206716688849
22138.0,24189.0,-0.14443647803469928
22148.0,24196.0,-0.11738658692256283
22158.0,24203.0,-0.0919803665882203
22168.0,24199.0,-0.0688004930076007
22178.0,24202.0,-0.04826537754064409
22188.0,24199.0,-0.030607618862017977
22198.0,24194.0,-0.015871515028088857
22208.0,24195.0,-0.003926728315263571
22219.0,24197.0,0.005508698785793603
22229.0,24197.0,0.012843022200830468
22238.0,24207.0,0.018586339300817045
22248.0,24201.0,0.02332464234942538
22258.0,24190.0,0.027686998066436024
22268.0,24196.0,0.03230400502751404
22278.0,24194.0,0.037763792459532264
22288.0,24202.0,0.04457504641766013
22298.0,24198.0,0.0531411045538455
22308.0,24202.0,0.06374226165647243
22318.0,24199.0,0.07652142892001795
22328.0,24191.0,0.09147073387289983
22338.0,24198.0,0.10842117975002663
22348.0,24202.0,0.1270410700552296
22359.0,24204.0,0.14684710228950734
22369.0,24200.0,0.16722558240598712
22378.0,24206.0,0.18745754522976568
22388.0,24200.0,0.20674364016985697
22398.0,24196.0,0.22422832606025472
22408.0,24197.0,0.2390262895806905
22418.0,24205.0,0.25025679717485977
22428.0,24209.0,0.2570898528058759
22438.0,24208.0,0.2588002358581458
22448.0,24206.0,0.25481871966823594
22458.0,24201.0,0.24477067598740004
22468.0,24195.0,0.2284993246177894
22478.0,24202.0,0.20607812552737248
22488.0,24205.0,0.17781894308159363
22499.0,24203.0,0.14427763432965232
22509.0,24203.0,0.10625133680391152
22518.0,24206.0,0.06475910159631222
22528.0,24187.0,0.021000320881341034
22538.0,24184.0,-0.023708538115996616
22548.0,24186.0,-0.06800949379590426
22558.0,24191.0,-0.11057569093158504
22568.0,24180.0,-0.1501703808654661
22578.0,24188.0,-0.1856907300768818
22588.0,24187.0,-0.2161989811590959
22598.0,24180.0,-0.24094347130910673
22608.0,24184.0,-0.2593720791220425
22618.0,24182.0,-0.27113948757956713
22628.0,24183.0,-0.2761079773367445
22639.0,24185.0,-0.2743421132928995
22649.0,24180.0,-0.26609925145299207
22658.0,24191.0,-0.251818047516728
22668.0,24176.0,-0.23210663794977873
22678.0,24175.0,-0.20773064308375014
22688.0,24179.0,-0.1795966668268874
22698.0,24184.0,-0.148722620120748
22708.0,24193.0,-0.11618931209565447
22718.0,24195.0,-0.08307792352252996
22728.0,24191.0,-0.05040628486211544
22738.0,24193.0,-0.01907695562511057
22748.0,24187.0,0.01015680113816622
22758.0,24189.0,0.03670901588110492
22768.0,24192.0,0.06016916549658788
22779.0,24195.0,0.08030615211589386
22789.0,24199.0,0.09706939970548574
22798.0,24199.0,0.11058319922039957
22808.0,24193.0,0.1211283310697933
22818.0,24182.0,0.1291083471924699
22828.0,24191.0,0.13500609203784125
22838.0,24199.0,0.1393423886064613
22848.0,24197.0,0.1426449546771485
22858.0,24187.0,0.14542511941776434
22868.0,24197.0,0.14815618844364098
22878.0,24189.0,0.15125284688099147
22888.0,24190.0,0.15505551555232536
22898.0,24200.0,0.15982280413101418
22908.0,24195.0,0.16573221211085767
22919.0,24197.0,0.1728853973586771
22929.0,24196.0,0.1813122946214418
22938.0,24205.0,0.19097014156060627
22948.0,24196.0,0.20173509641558868
22958.0,24189.0,0.2133842720844864
22968.0,24186.0,0.22557012749956235
22978.0,24196.0,0.2377971534681747
22988.0,24187.0,0.24941348199661734
22998.0,24198.0,0.25962405303894986
23008.0,24195.0,0.2675245605386522
23018.0,24196.0,0.2721515286738794
23028.0,24197.0,0.2725425267186584
23038.0,24190.0,0.267801271305447
23048.0,24203.0,0.25716455869798927
23059.0,24197.0,0.24006851028877427
23069.0,24196.0,0.21620903006870795
23078.0,24198.0,0.1855893308269979
23088.0,24200.0,0.14854881347775675
23098.0,24197.0,0.10576911204498601
23108.0,24182.0,0.05825326866607534
23118.0,24191.0,0.0072775671470455714
23128.0,24183.0,-0.04567772450885126
23138.0,24178.0,-0.09900970340293952
23148.0,24182.0,-0.1510792587703528
23158.0,24183.0,-0.20029751239715296
23168.0,24170.0,-0.24520920878874108
23178.0,24161.0,-0.28457102669089085
23188.0,24169.0,-0.3174181180302687
23199.0,24168.0,-0.3431065500431809
23209.0,24176.0,-0.3613230914750538
23219.0,24177.0,-0.3720652680146355
23228.0,24175.0,-0.37560346657354077
23238.0,24173.0,-0.37243804336730135
23248.0,24167.0,-0.36325923354334216
23258.0,24168.0,-0.3489099753116345
23268.0,24172.0,-0.330346283929671
23278.0,24178.0,-0.30859015195011413
23288.0,24177.0,-0.28467582310253436
23298.0,24178.0,-0.25959644721227304
23308.0,24176.0,-0.23425907092053003
23318.0,24174.0,-0.20945180416819634
23328.0,24179.0,-0.18582212008757354
23339.0,24171.0,-0.16386280563578443
23349.0,24186.0,-0.14390236820748403
23359.0,24182.0,-0.1260990566085761
23368.0,24180.0,-0.11044141198868827
23378.0,24181.0,-0.0967600852421692
23388.0,24176.0,-0.08475238558919583
23398.0,24177.0,-0.07401569050829938
23408.0,24187.0,-0.0640835118705772
23418.0,24180.0,-0.054460313835510046
23428.0,24182.0,-0.04465586585973157
23438.0,24178.0,-0.034221489839777845
23448.0,24174.0,-0.02278681846603005
23458.0,24170.0,-0.010090522229406883
23468.0,24185.0,0.004004240871167531
23479.0,24188.0,0.019516006595157114
23489.0,24185.0,0.03636968046683573
23498.0,24184.0,0.05442820464677729
23508.0,24193.0,0.0735207180206115
23518.0,24185.0,0.0934625288446667
23528.0,24184.0,0.11406507095192013
23538.0,24189.0,0.13513580408188275
23548.0,24177.0,0.1564714769236658
23558.0,24192.0,0.17785038600403
23568.0,24194.0,0.1990280553434157
23578.0,24194.0,0.21973579964024587
23588.0,24184.0,0.23967614476243243
23598.0,24186.0,0.2585106226946868
23608.0,24186.0,0.2758440104828271
23619.0,24191.0,0.2912144242843479
23629.0,24189.0,0.3040955269848958
23638.0,24196.0,0.3139106308089243
23648.0,24194.0,0.3200542838800459
23658.0,24193.0,0.3219155396741977
23668.0,24180.0,0.3188985744070444
23678.0,24188.0,0.3104417771557503
23688.0,24186.0,0.2960424441250741
23698.0,24183.0,0.27529419330101723
23708.0,24197.0,0.24793827531350482
23718.0,24193.0,0.213923154446336
23728.0,24190.0,0.17346112798307986
23738.0,24184.0,0.12706912849704233
23748.0,24191.0,0.07558607004441337
23759.0,24188.0,0.020165386365671292
23769.0,24181.0,-0.03775805788939153
23779.0,24176.0,-0.09652858133506523
23788.0,24174.0,-0.15435582722247498
23798.0,24169.0,-0.20941835361879943
23808.0,24155.0,-0.2599736801806593
23818.0,24163.0,-0.30446271551703746
23828.0,24160.0,-0.34159569290127634
23838.0,24164.0,-0.370409882045433
23848.0,24166.0,-0.39029704199534354
23858.0,24168.0,-0.40100573341759244
23868.0,24164.0,-0.40262694937263627
23878.0,24154.0,-0.39557051445775254
23888.0,24157.0,-0.3805340728454297
23899.0,24171.0,-0.35846004564267986
23909.0,24176.0,-0.3304768147079727
23919.0,24171.0,-0.2978302350681898
23928.0,24165.0,-0.26181922418757425
23938.0,24172.0,-0.22374462228915537
23948.0,24165.0,-0.18486985810692655
23958.0,24170.0,-0.14638682417555435
23968.0,24173.0,-0.10938167992403978
23978.0,24180.0,-0.07479871087147542
23988.0,24180.0,-0.043405131455801486
23998.0,24176.0,-0.01576395125099027
24008.0,24182.0,0.0077784996866412685
24018.0,24172.0,0.027088635308429303
24028.0,24175.0,0.04222837535476979
24039.0,24179.0,0.053430602451638914
24049.0,24179.0,0.06107326178335094
24059.0,24176.0,0.0656544574323643
24068.0,24184.0,0.0677673375471375
24078.0,24179.0,0.06807287148841912
24088.0,24172.0,0.06726910809922308
24098.0,24176.0,0.06605749277381334
24108.0,24170.0,0.06511114881256093
24118.0,24179.0,0.06505233800413956
24128.0,24189.0,0.06644277099391056
24138.0,24181.0,0.0697825012566054
24148.0,24184.0,0.07550648522556011
24158.0,24172.0,0.08396930737987675
24168.0,24172.0,0.09541798258021632
24179.0,24176.0,0.10996222159066583
24189.0,24179.0,0.12755391254642567
24199.0,24182.0,0.14798188931750889
24208.0,24186.0,0.1708797007120505
24218.0,24181.0,0.1957393760174536
24228.0,24176.0,0.22192518266216052
24238.0,24179.0,0.2486870072461761
24248.0,24192.0,0.2751785324314792
24258.0,24180.0,0.30048412154538573
24268.0,24188.0,0.3236519006485686
24278.0,24189.0,0.3437278898964615
24288.0,24185.0,0.3597882610802203
24298.0,24187.0,0.37096840594309916
24308.0,24180.0,0.3764886587528901
24319.0,24184.0,0.3756792595936021
24329.0,24189.0,0.36800878787058294
24339.0,24189.0,0.3531175770830181
24348.0,24193.0,0.33085154815524026
24358.0,24181.0,0.30128765066961555
24368.0,24180.0,0.2647441532422959
24378.0,24175.0,0.22177634024229903
24388.0,24176.0,0.17316478455849718
24398.0,24182.0,0.11990377657012496
24408.0,24186.0,0.06319127325691386
24418.0,24182.0,0.004412927362185832
24428.0,24177.0,-0.0548923486836799
24438.0,24160.0,-0.11309403591339924
24448.0,24157.0,-0.16855571053152432
24459.0,24169.0,-0.21972959761387506
24469.0,24158.0,-0.2652429038446082
24479.0,24153.0,-0.30396772324772486
24488.0,24154.0,-0.3350737977877841
24498.0,24148.0,-0.35806291424915343
24508.0,24152.0,-0.372782278896987
24518.0,24150.0,-0.37941651890530725
24528.0,24152.0,-0.37846054465229884
24538.0,24155.0,-0.3706761547975304
24548.0,24162.0,-0.35703527489054654
24558.0,24160.0,-0.33865356314119716
24568.0,24163.0,-0.3167197161579224
24578.0,24162.0,-0.29242640627514044
24588.0,24157.0,-0.26690718405971103
24599.0,24163.0,-0.24118052283731756
24609.0,24170.0,-0.2160998530294643
24619.0,24169.0,-0.1923103206308454
24629.0,24171.0,-0.17021816667796452
24638.0,24168.0,-0.1499806820447267
24648.0,24169.0,-0.1315209521665659
24658.0,24165.0,-0.11456602615052171
24668.0,24158.0,-0.09870279423913324
24678.0,24162.0,-0.08344212224706893
24688.0,24169.0,-0.06827958549102253
24698.0,24167.0,-0.05274427645567816
24708.0,24167.0,-0.03643465648784291
24718.0,24176.0,-0.019045262294789464
24728.0,24164.0,-0.00038797034601674565
24739.0,24165.0,0.01959051337249388
24749.0,24165.0,0.04079712551783983
24759.0,24174.0,0.06299309415338655
24769.0,24178.0,0.08581097150784027
24778.0,24176.0,0.10878413970432288
24788.0,24182.0,0.131378742699609
24798.0,24167.0,0.15301904389233956
24808.0,24173.0,0.17310373081519947
24818.0,24170.0,0.19101831545594058
24828.0,24173.0,0.20615246443115934
24838.0,24179.0,0.21792824656528603
24848.0,24178.0,0.22583884079656483
24858.0,24182.0,0.2294917070992778
24868.0,24176.0,0.22864806639296512
24879.0,24175.0,0.22325254380381282
24889.0,24183.0,0.2134511818710176
24899.0,24186.0,0.199597901006167
24909.0,24180.0,0.18224605593762291
24918.0,24178.0,0.1621181835548353
24928.0,24177.0,0.14005014041898226
24938.0,24161.0,0.11691354479016874
24948.0,24161.0,0.09352760718374495
24958.0,24162.0,0.07057687940894987
24968.0,24157.0,0.048552561964191665
24978.0,24173.0,0.027728914688017445
24988.0,24175.0,0.008175541477939103
24998.0,24170.0,-0.010204759430775189
25008.0,24168.0,-0.027628774434832443
25019.0,24151.0,-0.04438798125489644
25029.0,24169.0,-0.060806819528690666
25039.0,24162.0,-0.07719857070707674
25049.0,24174.0,-0.09381624283718944
25058.0,24163.0,-0.11080313432559082
25068.0,24176.0,-0.12815200188993509
25078.0,24166.0,-0.14568138206555498
25088.0,24159.0,-0.1630349044524224
25098.0,24161.0,-0.17970425606795806
25108.0,24161.0,-0.19506960311031832
25118.0,24162.0,-0.208448625292697
25128.0,24153.0,-0.21914882984609452
25138.0,24156.0,-0.22652104953591934
25148.0,24146.0,-0.2300109600467395
25159.0,24148.0,-0.22920353006578867
25169.0,24158.0,-0.22385607132224036
25179.0,24156.0,-0.21391796514260922
25189.0,24165.0,-0.19953712397912782
25198.0,24158.0,-0.18105492565949166
25208.0,24161.0,-0.15899269170659652
25218.0,24154.0,-0.13403178494544
25228.0,24160.0,-0.10698607504487015
25238.0,24166.0,-0.07876359538767953
25248.0,24165.0,-0.05031648699076324
25258.0,24164.0,-0.02258277557453691
25268.0,24175.0,0.003574236716165921
25278.0,24173.0,0.027423220139336894
25288.0,24168.0,0.048412153537014176
25299.0,24167.0,0.06619980285462011
25309.0,24181.0,0.08067026259171134
25319.0,24172.0,0.09193252395668083
25329.0,24176.0,0.1003038885458928
25338.0,24172.0,0.10627367053013931
25348.0,24168.0,0.11044730041194287
25358.0,24163.0,0.11347684734768998
25368.0,24161.0,0.11598867895383895
25378.0,24170.0,0.11852136174597833
25388.0,24172.0,0.12148396402127776
25398.0,24164.0,0.12513673373901107
25408.0,24179.0,0.12958952807517252
25418.0,24177.0,0.1348120809844328
25428.0,24168.0,0.1406498366278098
25439.0,24164.0,0.14683964181810175
25449.0,24167.0,0.15302606820984768
25459.0,24177.0,0.15878617732809192
25469.0,24172.0,0.1636679359732026
25479.0,24181.0,0.16723795474724343
25488.0,24179.0,0.16912815463234393
25498.0,24176.0,0.16907115447713056
25508.0,24169.0,0.16691794800445262
25518.0,24171.0,0.16263796495155083
25528.0,24171.0,0.1563081396021266
25538.0,24170.0,0.148099023721434
25548.0,24179.0,0.1382620896691024
25558.0,24173.0,0.1271171912122114
25568.0,24170.0,0.11503583783374104
25579.0,24174.0,0.10241678493347701
25589.0,24169.0,0.08965449857946776
25599.0,24162.0,0.07710402811336015
25609.0,24166.0,0.06504743781779343
25619.0,24173.0,0.05366849236822577
25628.0,24173.0,0.04303976251691157
25638.0,24168.0,0.03311904667336501
25648.0,24158.0,0.023748633889366152
25658.0,24162.0,0.014656877839323046
25668.0,24167.0,0.005469646425871755
25678.0,24164.0,-0.004260806175002915
25688.0,24169.0,-0.015009615195720152
25698.0,24173.0,-0.02722245705000182
25708.0,24163.0,-0.04125697378298677
25719.0,24167.0,-0.05733035905174392
25729.0,24168.0,-0.07547724335296259
25739.0,24172.0,-0.09551892515843614
25749.0,24172.0,-0.11704679890545631
25759.0,24170.0,-0.13942661160267125
25768.0,24161.0,-0.16182987174809746
25778.0,24158.0,-0.18329271432510147
25788.0,24142.0,-0.2027941064625874
25798.0,24147.0,-0.21934012127465305
25808.0,24144.0,-0.2320421787029474
25818.0,24140.0,-0.24018199054966374
25828.0,24154.0,-0.2432600975996846
25838.0,24158.0,-0.24102696324370979
25848.0,24156.0,-0.233496515486008
25859.0,24158.0,-0.2209425345725754
25869.0,24157.0,-0.20387834212821107
25879.0,24164.0,-0.183020297334019
25889.0,24166.0,-0.15923707198366854
25899.0,24166.0,-0.1334899310687712
25908.0,24171.0,-0.10677185404696683
25918.0,24170.0,-0.08005311912107117
25928.0,24157.0,-0.05423838678380746
25938.0,24167.0,-0.030135292085715186
25948.0,24172.0,-0.008428790023960872
25958.0,24170.0,0.010344315378230167
25968.0,24172.0,0.025819387489649917
25978.0,24178.0,0.03782060308925736
25988.0,24172.0,0.046365046923819944
25999.0,24167.0,0.051651257385830596
26009.0,24168.0,0.05403307636426487
26019.0,24172.0,0.05398512330446478
26029.0,24172.0,0.05206750691559646
26039.0,24174.0,0.04889267934654461
26048.0,24170.0,0.045092570176472384
26058.0,24170.0,0.0412838960409293
26068.0,24169.0,0.03803253570712681
26078.0,24161.0,0.03582095326703352
26088.0,24171.0,0.03502453749588979
26098.0,24169.0,0.035902581950398846
26108.0,24177.0,0.03860570669303633
26118.0,24171.0,0.043195236945485736
26128.0,24179.0,0.049666513915472894
26139.0,24176.0,0.05796896296704606
26149.0,24165.0,0.06801846405282852
26159.0,24181.0,0.07970144742158947
26169.0,24171.0,0.0928740271078148
26179.0,24178.0,0.10735938431446213
26189.0,24180.0,0.12294325421322175
26198.0,24176.0,0.13936545712168905
26208.0,24175.0,0.15630595530770913
26218.0,24171.0,0.1733666904940546
26228.0,24172.0,0.19005499636045914
26238.0,24179.0,0.2057769378896743
26248.0,24176.0,0.21984637632055304
26258.0,24180.0,0.23150983517596102
26268.0,24181.0,0.2399831423111873
26279.0,24183.0,0.24449491754492014
26289.0,24179.0,0.24433211307132283
26299.0,24176.0,0.23888378590577652
26309.0,24183.0,0.2276821557082321
26319.0,24180.0,0.21044203752225718
26329.0,24185.0,0.1870976607542774
26338.0,24179.0,0.15783203209083935
26348.0,24180.0,0.12309302380548004
26358.0,24173.0,0.08359306980116836
26368.0,24182.0,0.04029302648527519
26378.0,24180.0,-0.005628211471247303
26388.0,24167.0,-0.05281919047690032
26398.0,24171.0,-0.09981800324463877
26408.0,24167.0,-0.14512772786356032
26419.0,24169.0,-0.1872974384931454
26429.0,24154.0,-0.2250020587662005
26439.0,24164.0,-0.2571161710739936
26449.0,24156.0,-0.28277573115878274
26459.0,24159.0,-0.3014210496027575
26469.0,24165.0,-0.3128168392012547
26478.0,24162.0,-0.31704917840506286
26488.0,24163.0,-0.3145033304016828
26498.0,24153.0,-0.30582777624361335
26508.0,24159.0,-0.29188669132520656
26518.0,24170.0,-0.27369917557752815
26528.0,24167.0,-0.2523648751189158
26538.0,24176.0,-0.22898224153549046
26548.0,24178.0,-0.2045712598865981
26559.0,24177.0,-0.1800133635436759
26569.0,24160.0,-0.15601794791130721
26579.0,24169.0,-0.1331163790503148
26589.0,24175.0,-0.11167384303903836
26599.0,24174.0,-0.09190729572638927
26609.0,24175.0,-0.07390595737194129
26618.0,24175.0,-0.05765757277427851
26628.0,24170.0,-0.043082400468742836
26638.0,24166.0,-0.03007190446552355
26648.0,24164.0,-0.018524196122588394
26658.0,24181.0,-0.008365518369307275
26668.0,24171.0,0.0004493268625068522
26678.0,24183.0,0.007955422878888846
26688.0,24185.0,0.014205678076667507
26699.0,24181.0,0.0192972502639949
26709.0,24175.0,0.023387157734774348
26719.0,24171.0,0.026693587399702845
26729.0,24174.0,0.029488426565106956
26739.0,24187.0,0.03209096238889621
26749.0,24184.0,0.03486704381167271
26758.0,24186.0,0.038227440664930376
26768.0,24182.0,0.04261431949668855
26778.0,24181.0,0.048469351303932116
26788.0,24172.0,0.05618525557957421
26798.0,24178.0,0.06604921495084265
26808.0,24176.0,0.07818976958217798
26818.0,24177.0,0.09253726112041535
26828.0,24184.0,0.10880295883529106
26839.0,24179.0,0.12647720810593716
26849.0,24180.0,0.14484422380823714
26859.0,24179.0,0.1630114201812837
26869.0,24189.0,0.1799532628458002
26879.0,24187.0,0.19456901339242627
26889.0,24187.0,0.20574934659823696
26899.0,24187.0,0.21244411009299025
26908.0,24190.0,0.21372552996776836
26918.0,24181.0,0.20884436228279585
26928.0,24188.0,0.19727829069058608
26938.0,24185.0,0.1787731767962759
26948.0,24189.0,0.15337757806224114
26958.0,24185.0,0.12146832781003938
26968.0,24191.0,0.0837625945679776
26979.0,24190.0,0.04131115903816337
26989.0,24183.0,-0.004532564608634467
26999.0,24176.0,-0.05217156580897416
27009.0,24171.0,-0.09984980015395288
27019.0,24176.0,-0.14575179258163473
27029.0,24172.0,-0.1881044256157508
27039.0,24169.0,-0.2252725594758016
27048.0,24172.0,-0.2558450940426535
27058.0,24166.0,-0.2787092192938814
27068.0,24159.0,-0.2931095737328361
27078.0,24166.0,-0.2986870812431348
27088.0,24172.0,-0.2954909025356654
27098.0,24165.0,-0.28396054349250194
27108.0,24175.0,-0.2648821514009397
27119.0,24176.0,-0.2393265593080391
27129.0,24173.0,-0.2085766047394852
27139.0,24172.0,-0.17405055891532234
27149.0,24180.0,-0.13722577412535836
27159.0,24181.0,-0.09956363898423536
27169.0,24184.0,-0.062438279072210535
27179.0,24180.0,-0.02707477306072491
27188.0,24185.0,0.005497802214551984
27198.0,24184.0,0.034476892998636564
27208.0,24181.0,0.05930160436956129
27218.0,24182.0,0.07965461824344894
27228.0,24184.0,0.09545456678414521
27238.0,24184.0,0.1068432775255642
27248.0,24188.0,0.11417044603765931
27259.0,24194.0,0.1179749588740674
27269.0,24191.0,0.11895872205480566
27279.0,24179.0,0.11794732297494213
27289.0,24180.0,0.11583618306480835
27299.0,24185.0,0.11352990242100303
27309.0,24183.0,0.1118867602408939
27319.0,24189.0,0.11167517768923238
27328.0,24185.0,0.1135413855300015
27338.0,24191.0,0.11798429393097418
27348.0,24182.0,0.1253340916159074
27358.0,24179.0,0.1357337659714346
27368.0,24187.0,0.14912719923919374
27378.0,24189.0,0.16526014336695163
27388.0,24190.0,0.18369670402509555
27399.0,24189.0,0.20384730741908688
27409.0,24199.0,0.22500158339419302
27419.0,24189.0,0.2463607815263424
27429.0,24186.0,0.26706597449051866
27439.0,24200.0,0.2862217105087959
27449.0,24185.0,0.30291843481293734
27459.0,24198.0,0.31625638026426833
27468.0,24195.0,0.32537083694010593
27478.0,24185.0,0.3294577005078892
27488.0,24192.0,0.3277993069365464
27498.0,24190.0,0.31979339956879954
27508.0,24195.0,0.3049889360972131
27518.0,24195.0,0.2831280993920478
27528.0,24194.0,0.2541884077641739
27539.0,24197.0,0.21841684795478555
27549.0,24190.0,0.17634900851907653
27559.0,24186.0,0.1288088016278457
27569.0,24178.0,0.07688888122790037
27579.0,24197.0,0.021916871198195183
27589.0,24185.0,-0.03458779380922733
27599.0,24181.0,-0.09096839647324638
27608.0,24181.0,-0.14550238487635597
27618.0,24177.0,-0.19649012730217444
27628.0,24163.0,-0.24235474160969303
27638.0,24159.0,-0.28174270765421644
27648.0,24170.0,-0.31361070137079744
27658.0,24164.0,-0.3372837881318548
27668.0,24164.0,-0.35247823299422726
27679.0,24179.0,-0.3592915788902226
27689.0,24170.0,-0.3581674219769251
27699.0,24170.0,-0.34984498197191133
27709.0,24164.0,-0.33530270417999486
27719.0,24171.0,-0.3156983582612189
27729.0,24173.0,-0.29230244577792946
27739.0,24181.0,-0.2664240183716976
27748.0,24181.0,-0.23933515737542496
27758.0,24177.0,-0.2122051375133612
27768.0,24169.0,-0.18605311906489638
27778.0,24171.0,-0.16171951314606461
27788.0,24180.0,-0.13984756673197507
27798.0,24183.0,-0.12086667035484107
27808.0,24180.0,-0.10497742617791334
27819.0,24183.0,-0.0921457225228511
27829.0,24185.0,-0.08211243762855636
27839.0,24175.0,-0.07442100455121853
27849.0,24177.0,-0.06846114421087587
27859.0,24178.0,-0.06352284055677096
27869.0,24175.0,-0.05885185180803535
27879.0,24178.0,-0.053699540633054876
27888.0,24183.0,-0.04736335376092035
27898.0,24187.0,-0.039217932093441384
27908.0,24175.0,-0.028740762904543835
27918.0,24178.0,-0.015536792339764625
27928.0,24182.0,0.0006389805140457697
27938.0,24183.0,0.019866459245035974
27948.0,24183.0,0.042056015223539904
27959.0,24192.0,0.06695253103749706
27969.0,24181.0,0.09414351766386068
27979.0,24185.0,0.12306782031545267
27989.0,24180.0,0.1530252355501887
27999.0,24192.0,0.1831918315729815
28009.0,24190.0,0.21264549217257048
28019.0,24194.0,0.24040055720473322
28028.0,24195.0,0.2654453621980981
28038.0,24197.0,0.2867758836477853
28048.0,24182.0,0.3034212871555218
28058.0,24181.0,0.31446259079118716
28068.0,24191.0,0.3190534576163163
28078.0,24193.0,0.3164548504056126
28088.0,24193.0,0.3060870841770704
28099.0,24194.0,0.28759167466651053
28109.0,24205.0,0.2608912565010663
28119.0,24191.0,0.22623641707441253
28129.0,24183.0,0.18422983168054427
28139.0,24193.0,0.13582414131532772
28149.0,24194.0,0.08229774291860582
28159.0,24188.0,0.025211934950631846
28168.0,24180.0,-0.03365352330462812
28178.0,24180.0,-0.09238873528446714
28188.0,24167.0,-0.14906004377077825
28198.0,24170.0,-0.20182212017809842
28208.0,24166.0,-0.24902185557014198
28218.0,24168.0,-0.28928241658177084
28228.0,24170.0,-0.32156113193483554
28239.0,24173.0,-0.345181155723211
28249.0,24170.0,-0.35984183621643734
28259.0,24163.0,-0.3656144844318741
28269.0,24156.0,-0.36292660746215505
28279.0,24167.0,-0.35253027781589813
28289.0,24173.0,-0.3354470091986132
28299.0,24178.0,-0.31288832923558196
28308.0,24180.0,-0.28616298617351693
28318.0,24180.0,-0.25658773409512936
28328.0,24175.0,-0.2254155703396075
28338.0,24164.0,-0.1937867533948508
28348.0,24181.0,-0.16269798501429783
28358.0,24177.0,-0.13297976007264264
28368.0,24186.0,-0.1052762608846389
28379.0,24180.0,-0.0800312347805336
28389.0,24180.0,-0.057486682151952614
28399.0,24181.0,-0.037697021584035775
28409.0,24175.0,-0.020555563229787792
28419.0,24182.0,-0.005826963923654837
28429.0,24180.0,0.00682068546371743
28439.0,24184.0,0.017788027517450403
28448.0,24183.0,0.027521185616925688
28458.0,24185.0,0.036491152857264196
28468.0,24183.0,0.04517380283966192
28478.0,24182.0,0.0540297380482267
28488.0,24182.0,0.0634851075535507
28498.0,24184.0,0.0739162110383905
28508.0,24190.0,0.08564038587458236
28519.0,24195.0,0.09891224337128694
28529.0,24190.0,0.11391933251870441
28539.0,24191.0,0.1307691972079439
28549.0,24178.0,0.14946403643490266
28559.0,24184.0,0.16986793349512236
28569.0,24182.0,0.19167882128887215
28579.0,24196.0,0.21441733283268968
28588.0,24196.0,0.23743656078626277
28598.0,24198.0,0.2599461405529501
28608.0,24187.0,0.281039326405448
28618.0,24186.0,0.2997169134408111
28628.0,24183.0,0.31491264626490834
28638.0,24190.0,0.32553187652180793
28648.0,24198.0,0.33051277780123955
28659.0,24203.0,0.32890899520930483
28669.0,24198.0,0.3199812447704109
28679.0,24194.0,0.30328119845134915
28689.0,24195.0,0.27871661295728817
28699.0,24201.0,0.2465952193834974
28709.0,24205.0,0.2076469335482471
28719.0,24191.0,0.16301914121816757
28729.0,24201.0,0.11423720055430522
28738.0,24185.0,0.0631270572954982
28748.0,24184.0,0.011704334599671287
28758.0,24172.0,-0.0379596146019119
28768.0,24178.0,-0.08387901777969729
28778.0,24177.0,-0.12428505581599476
28788.0,24170.0,-0.15773480795395098
28799.0,24173.0,-0.1831919570876495
28809.0,24179.0,-0.20007644735169167
28819.0,24178.0,-0.2082822886454955
28829.0,24165.0,-0.20816672682901338
28839.0,24174.0,-0.2005146531124666
28849.0,24179.0,-0.1864775164781576
28859.0,24181.0,-0.1674853158820479
28869.0,24191.0,-0.1451377428277143
28878.0,24188.0,-0.12108842796899306
28888.0,24188.0,-0.0969380975616649
28898.0,24181.0,-0.07414820342973223
28908.0,24178.0,-0.05397799818048668
28918.0,24188.0,-0.037439384100620574
28928.0,24189.0,-0.025261588688031366
28939.0,24186.0,-0.017863383580481135
28949.0,24192.0,-0.015337142627568176
28959.0,24192.0,-0.017450138171484237
28969.0,24184.0,-0.02366638145549731
28979.0,24182.0,-0.03318954228580337
28989.0,24189.0,-0.04502271052740487
28999.0,24181.0,-0.05803716287055897
29009.0,24189.0,-0.07104401723096451
29018.0,24188.0,-0.08286663417618778
29028.0,24182.0,-0.09241388393381453
29038.0,24177.0,-0.09875390736072692
29048.0,24167.0,-0.10118318592045986
29058.0,24179.0,-0.09927847714275743
29068.0,24185.0,-0.09291742474080775
29079.0,24193.0,-0.08226281040978582
29089.0,24190.0,-0.06771982928833989
29099.0,24190.0,-0.049883506639032675
29109.0,24188.0,-0.02948971581102546
29119.0,24183.0,-0.007374120891784027
29129.0,24192.0,0.015563885647335423
29139.0,24190.0,0.03839725172216363
29149.0,24196.0,0.060209226887299384
29158.0,24199.0,0.08012998747327336
29168.0,24193.0,0.09736568877866342
29178.0,24192.0,0.11121478705063009
29188.0,24182.0,0.12107194081421847
29198.0,24197.0,0.1264269019945921
29208.0,24187.0,0.12686827801650397
29219.0,24196.0,0.12209736553519827
29229.0,24198.0,0.11195053657614142
29239.0,24201.0,0.09642427888834049
29249.0,24192.0,0.07569453345614342
29259.0,24184.0,0.05012330178254059
29269.0,24193.0,0.02025279908916486
29279.0,24191.0,-0.013205799568326475
29289.0,24198.0,-0.049384152349957154
29298.0,24189.0,-0.08727236426234863
29308.0,24192.0,-0.12574589078343404
29318.0,24188.0,-0.16360830957529024
29328.0,24177.0,-0.19964908313332697
29338.0,24181.0,-0.23271054945521677
29348.0,24180.0,-0.261754656729494
29359.0,24179.0,-0.2859200343007334
29369.0,24180.0,-0.30456449696264914
29379.0,24184.0,-0.3172926124936528
29389.0,24174.0,-0.32397001882985177
29399.0,24171.0,-0.32472569597349177
29409.0,24184.0,-0.319939904469791
29419.0,24176.0,-0.3102132614670022
29429.0,24189.0,-0.2963166131731732
29439.0,24189.0,-0.27912838845309557
29448.0,24190.0,-0.259570224132831
29458.0,24186.0,-0.23855190019657727
29468.0,24174.0,-0.216932045302665
29478.0,24178.0,-0.19549154111569042
29488.0,24190.0,-0.17490820876457497
29499.0,24193.0,-0.15572309361531966
29509.0,24196.0,-0.13830062796578962
29519.0,24195.0,-0.12279550134250801
29529.0,24194.0,-0.10913923499978036
29539.0,24188.0,-0.09705230748943533
29549.0,24191.0,-0.08607975094997353
29559.0,24185.0,-0.07564261437259681
29569.0,24193.0,-0.0650958520742018
29579.0,24192.0,-0.05378509788927028
29588.0,24187.0,-0.041098676300198644
29598.0,24190.0,-0.026513506024872423
29608.0,24187.0,-0.009632132386132012
29618.0,24197.0,0.009793748182283516
29628.0,24188.0,0.03185616276778374
29639.0,24198.0,0.05649936641972193
29649.0,24200.0,0.08354116114471088
29659.0,24208.0,0.11270254290442233
29669.0,24200.0,0.14363791307155122
29679.0,24199.0,0.175957164628314
29689.0,24210.0,0.20923599242724772
29699.0,24204.0,0.24301631925961745
29709.0,24201.0,0.27679890806341995
29719.0,24200.0,0.31002973633722736
29728.0,24208.0,0.3420853591871729
29738.0,24210.0,0.37226440235137526
29748.0,24199.0,0.3997881046990143
29758.0,24196.0,0.4238098671504803
29768.0,24212.0,0.44343794393939256
29779.0,24212.0,0.4577782467729821
29789.0,24211.0,0.4659968614923245
29799.0,24222.0,0.4673916888803244
29809.0,24211.0,0.46145989947173416
29819.0,24212.0,0.44795111652992237
29829.0,24212.0,0.4269014065805184
29839.0,24212.0,0.398648312049964
29849.0,24206.0,0.3638289609543349
29859.0,24211.0,0.3233623240791679
29868.0,24216.0,0.2784159054793965
29878.0,24205.0,0.2303552720612507
29888.0,24187.0,0.18067357843799195
29898.0,24198.0,0.1309045457630342
29908.0,24193.0,0.08253270802031636
29919.0,24193.0,0.03691586487177174
29929.0,24191.0,-0.004773953420970861
29939.0,24195.0,-0.04159143223826755
29949.0,24189.0,-0.07284279101992136
29959.0,24188.0,-0.09809676068939725
29969.0,24189.0,-0.1171832868854749
29979.0,24190.0,-0.13017987858214244
29989.0,24189.0,-0.13738586767082023
29999.0,24191.0,-0.13928710789323598
30008.0,24193.0,-0.1365151371779489
30018.0,24190.0,-0.12980517778872136
30028.0,24189.0,-0.11995694805042983
30038.0,24188.0,-0.10780012580708155
30048.0,24188.0,-0.09416307719107614
30059.0,24189.0,-0.07984176613485733
30069.0,24197.0,-0.06556687983094424
30079.0,24193.0,-0.05197065511820188
30089.0,24196.0,-0.03955862061064063
30099.0,24196.0,-0.02869229860546698
30109.0,24183.0,-0.019585964121569793
30119.0,24193.0,-0.012315451712149067
30129.0,24194.0,-0.006832559321523357
30139.0,24197.0,-0.0029795056437627258
30149.0,24194.0,-0.0005042376103350037
30158.0,24190.0,0.0009186518203304382
30168.0,24194.0,0.0016594554944826042
30178.0,24182.0,0.002100572470736797
30188.0,24190.0,0.002605755645975044
30199.0,24191.0,0.0034983189148024463
30209.0,24194.0,0.005052472992837859
30219.0,24201.0,0.007495668083060118
30229.0,24199.0,0.011013717313785412
30239.0,24193.0,0.015748457555530122
30249.0,24182.0,0.021781845147204236
30259.0,24193.0,0.029110008323655914
30269.0,24191.0,0.03761842640826328
30279.0,24197.0,0.047067125542180385
30289.0,24192.0,0.05708610481346525
30298.0,24193.0,0.06717629637404882
30308.0,24190.0,0.076713281705048
30318.0,24176.0,0.08495589998113748
30328.0,24194.0,0.09106679073371439
30339.0,24188.0,0.0941535659580161
30349.0,24195.0,0.09333373613088362
30359.0,24201.0,0.08781680876284106
30369.0,24199.0,0.07699048521805742
30379.0,24195.0,0.06049643976481564
30389.0,24191.0,0.03828436333124402
30399.0,24191.0,0.010640332061363555
30409.0,24197.0,-0.021808119285267543
30419.0,24191.0,-0.05810785243453736
30429.0,24192.0,-0.09701851249026197
30438.0,24183.0,-0.1370762061361769
30448.0,24186.0,-0.17668133850991286
30458.0,24175.0,-0.21420434547727316
30468.0,24160.0,-0.24809911189484438
30479.0,24167.0,-0.27700903392255377
30489.0,24173.0,-0.2998467774577684
30499.0,24187.0,-0.31583451985475863
30509.0,24178.0,-0.32450796703565965
30519.0,24184.0,-0.32570127495308
30529.0,24171.0,-0.3195298935593973
30539.0,24164.0,-0.3063774429639703
30549.0,24175.0,-0.2868804705558302
30559.0,24180.0,-0.2618995676686763
30569.0,24179.0,-0.2324713345117148
30578.0,24181.0,-0.19974677962413995
30588.0,24185.0,-0.16492636329380342
30598.0,24182.0,-0.12919927608393572
30608.0,24179.0,-0.09369106358585524
30619.0,24179.0,-0.05942025641826373
30629.0,24187.0,-0.02726071562216453
30639.0,24192.0,0.0020937579725882243
30649.0,24195.0,0.02816006085068239
30659.0,24189.0,0.05068265740746899
30669.0,24186.0,0.0696280056185575
30679.0,24180.0,0.08515584318844753
30689.0,24188.0,0.09757584394419719
30699.0,24188.0,0.10730117401052283
30709.0,24184.0,0.11480594497127668
30719.0,24188.0,0.12058775538454054
30728.0,24185.0,0.12513517939055696
30738.0,24188.0,0.12890128147423704
30748.0,24182.0,0.13228436975328065
30759.0,24188.0,0.1356169604415796
30769.0,24194.0,0.13916370228470676
30779.0,24193.0,0.14312623487825435
30789.0,24190.0,0.14764832494400107
30799.0,24192.0,0.15281371523605072
30809.0,24188.0,0.15863356473752854
30819.0,24181.0,0.16502564190748048
30829.0,24186.0,0.1717912302676647
30839.0,24185.0,0.1785980337888689
30849.0,24184.0,0.1849761764700986
30859.0,24191.0,0.190329957144683
30868.0,24189.0,0.19396377193584682
30878.0,24188.0,0.19511778884696226
30888.0,24176.0,0.19300867557217105
30899.0,24189.0,0.18687477713109676
30909.0,24185.0,0.17602949282525526
30919.0,24187.0,0.15992451822687045
30929.0,24189.0,0.13821822279431162
30939.0,24194.0,0.11084055847951885
30949.0,24191.0,0.0780446812302479
30959.0,24185.0,0.0404349630897409
30969.0,24184.0,-0.0010360470369427317
30979.0,24182.0,-0.045102489167777454
30989.0,24181.0,-0.09024748984248682
30999.0,24179.0,-0.13478785874858298
31008.0,24171.0,-0.1769771172245806
31018.0,24174.0,-0.21512178753497754
31028.0,24154.0,-0.24770279616741184
31039.0,24155.0,-0.27348992370346753
31049.0,24160.0,-0.2916334465646234
31059.0,24162.0,-0.3017173701440723
31069.0,24170.0,-0.3037667363815532
31079.0,24172.0,-0.29821347103992946
31089.0,24174.0,-0.2858337733678418
31099.0,24164.0,-0.2676718972133338
31109.0,24167.0,-0.2449601912045519
31119.0,24177.0,-0.2190372392849639
31129.0,24179.0,-0.19126329724256483
31139.0,24177.0,-0.16293793492033598
31148.0,24180.0,-0.1352303382798463
31158.0,24177.0,-0.10913077647155774
31168.0,24170.0,-0.0854254684364422
31179.0,24168.0,-0.06469086684791474
31189.0,24177.0,-0.04729814437226818
31199.0,24176.0,-0.03341796507174328
31209.0,24184.0,-0.023022020669916134
31219.0,24184.0,-0.015886245468502796
31229.0,24176.0,-0.01160444118958347
31239.0,24175.0,-0.009618157154685426
31249.0,24170.0,-0.009260833684614937
31259.0,24179.0,-0.009807132972947294
31269.0,24176.0,-0.010518114232430006
31279.0,24182.0,-0.010678923537266643
31288.0,24180.0,-0.009631921439533488
31298.0,24173.0,-0.006810069190039226
31308.0,24168.0,-0.0017719838324693129
31319.0,24170.0,0.0057669333055990184
31329.0,24186.0,0.01591744606908327
31339.0,24177.0,0.028619006346648792
31349.0,24179.0,0.043657007207175316
31359.0,24184.0,0.06068548141075517
31369.0,24183.0,0.07924943220346659
31379.0,24185.0,0.09880386239163634
31389.0,24175.0,0.1187267710914444
31399.0,24179.0,0.13832617296357194
31409.0,24178.0,0.1568465735264993
31419.0,24186.0,0.17348234191143067
31428.0,24184.0,0.1874012003723544
31438.0,24183.0,0.1977748481077882
31448.0,24181.0,0.2038116872742101
31459.0,24174.0,0.2047899700527079
31469.0,24182.0,0.20009465008806365
31479.0,24182.0,0.18926292554390237
31489.0,24188.0,0.17203936084186108
31499.0,24192.0,0.1484338457154855
31509.0,24188.0,0.11876969624468012
31519.0,24182.0,0.08370855850373869
31529.0,24182.0,0.04424423222399475
31539.0,24182.0,0.0016656432558702285
31549.0,24173.0,-0.04250606958206535
31559.0,24174.0,-0.08660067126808048
31569.0,24174.0,-0.12889573825516562
31578.0,24171.0,-0.16772033864730373
31588.0,24158.0,-0.2015595363966947
31599.0,24153.0,-0.22915266059905925
31609.0,24161.0,-0.2495733117900045
31619.0,24163.0,-0.2622775319229174
31629.0,24169.0,-0.26711389731206414
31639.0,24170.0,-0.2643001968720458
31649.0,24168.0,-0.25437788977895504
31659.0,24176.0,-0.23815582222179665
31669.0,24163.0,-0.2166514921492466
31679.0,24167.0,-0.19103381607392764
31689.0,24169.0,-0.16256630533789174
31699.0,24175.0,-0.13254664889075468
31709.0,24176.0,-0.10224180284325977
31718.0,24176.0,-0.07282376796515616
31728.0,24182.0,-0.04531377548699493
31739.0,24171.0,-0.02054075122404935
31749.0,24173.0,0.0008840157156384117
31759.0,24182.0,0.01857888895453009
31769.0,24177.0,0.032395485963873136
31779.0,24179.0,0.042415345193414625
31789.0,24181.0,0.04893746452524575
31799.0,24181.0,0.05245489885685031
31809.0,24171.0,0.0536203477277068
31819.0,24177.0,0.05320289456906672
31829.0,24178.0,0.052041476469046014
31839.0,24180.0,0.05100106602709776
31849.0,24179.0,0.05093304304772097
31858.0,24185.0,0.05263697473788795
31868.0,24177.0,0.056820303792761595
31879.0,24167.0,0.06405461767766306
31889.0,24180.0,0.07473257037983179
31899.0,24175.0,0.08903479451939127
31909.0,24178.0,0.10691448364776117
31919.0,24182.0,0.12810063196125474
31929.0,24189.0,0.15211633995277207
31939.0,24186.0,0.17830606273665578
31949.0,24174.0,0.2058642594986656
31959.0,24181.0,0.23386213679150264
31969.0,24189.0,0.26127739691265905
31979.0,24189.0,0.2870333517604321
31989.0,24192.0,0.31004579488609724
31998.0,24186.0,0.32926935126511875
32008.0,24188.0,0.3437368656000983
32019.0,24183.0,0.3525916426393634
32029.0,24189.0,0.35511673411856964
32039.0,24187.0,0.3507656083730674
32049.0,24188.0,0.33919541547699944
32059.0,24191.0,0.3203005417893275
32069.0,24190.0,0.29424210603636136
32079.0,24195.0,0.26146777725892323
32089.0,24179.0,0.2227156376910701
32099.0,24187.0,0.17899811118748504
32109.0,24186.0,0.1315670684328969
32119.0,24177.0,0.0818638789968139
32129.0,24181.0,0.03145687469325937
32138.0,24179.0,-0.01803183774210795
32148.0,24176.0,-0.06500743759021552
32159.0,24163.0,-0.10798849015794401
32169.0,24165.0,-0.1456928687051189
32179.0,24165.0,-0.17711300540556313
32189.0,24165.0,-0.20156869751873355
32199.0,24167.0,-0.21873130443988212
32209.0,24169.0,-0.22862018062776376
32219.0,24172.0,-0.23157640834133153
32229.0,24163.0,-0.228220716798606
32239.0,24172.0,-0.2194016760668997
32249.0,24171.0,-0.20613735293246715
32259.0,24165.0,-0.18955221983154458
32269.0,24172.0,-0.1708115520826163
32278.0,24177.0,-0.15105512320333606
32288.0,24180.0,-0.13133297206280126
32299.0,24170.0,-0.1125499744619959
32309.0,24175.0,-0.09542657028269645
32319.0,24177.0,-0.08047727830545504
32329.0,24172.0,-0.06800373373760447
32339.0,24171.0,-0.05809902367533011
32349.0,24184.0,-0.050660828000263905
32359.0,24177.0,-0.045411652028488785
32369.0,24176.0,-0.04192781164745559
32379.0,24171.0,-0.03968011798377452
32389.0,24173.0,-0.03808415983408729
32399.0,24175.0,-0.036552571614147225
32409.0,24177.0,-0.03454218398680021
32418.0,24170.0,-0.031593468334841605
32428.0,24174.0,-0.027362142254155133
32439.0,24168.0,-0.02164106486812409
32449.0,24171.0,-0.014367956493904035
32459.0,24181.0,-0.005614700485001195
32469.0,24177.0,0.004441845887780866
32479.0,24181.0,0.015561396711885882
32489.0,24186.0,0.027484518735148233
32499.0,24191.0,0.03997032704054684
32509.0,24187.0,0.052818364475597235
32519.0,24174.0,0.0658662365950779
32529.0,24178.0,0.07896167927750958
32539.0,24173.0,0.09191899846570617
32549.0,24176.0,0.10447564198459885
32558.0,24179.0,0.11626159055410355
32568.0,24178.0,0.12678751045241266
32579.0,24186.0,0.13545179717980227
32589.0,24167.0,0.1415633576751348
32599.0,24181.0,0.14437790232683753
32609.0,24185.0,0.143149079716045
32619.0,24185.0,0.13719478308002747
32629.0,24185.0,0.12597157809273127
32639.0,24190.0,0.10914515084330874
32649.0,24184.0,0.08664620509119773
32659.0,24173.0,0.05870522956954838
32669.0,24187.0,0.025864791706538583
32679.0,24180.0,-0.01102715806926698
32689.0,24186.0,-0.05084071249694055
32699.0,24176.0,-0.0922072401848156
32708.0,24179.0,-0.13358647336720753
32719.0,24168.0,-0.17335671247242462
32729.0,24160.0,-0.20992120489687893
32739.0,24162.0,-0.241817983317236
32749.0,24164.0,-0.2678170504533737
32759.0,24166.0,-0.2869919475019158
32769.0,24168.0,-0.29876169059794067
32779.0,24165.0,-0.30290680075450527
32789.0,24164.0,-0.29956507470929233
32799.0,24162.0,-0.28921002353880476
32809.0,24171.0,-0.27261149767976844
32819.0,24168.0,-0.2507780020258161
32829.0,24175.0,-0.22488411624030447
32839.0,24177.0,-0.19619050623816323
32848.0,24177.0,-0.16596557297903738
32859.0,24178.0,-0.13541717171622758
32869.0,24168.0,-0.10563984264730328
32879.0,24174.0,-0.07757722209869727
32889.0,24182.0,-0.05199395434240582
32899.0,24179.0,-0.029452095470678515
32909.0,24181.0,-0.010293299462030388
32919.0,24188.0,0.0053676689446852015
32929.0,24183.0,0.017633176473829407
32939.0,24168.0,0.02679416444810697
32949.0,24177.0,0.0332856695855342
32959.0,24177.0,0.03763733954800496
32969.0,24181.0,0.04043135913660913
32979.0,24186.0,0.04227210843069998
32988.0,24182.0,0.0437630848022871
32999.0,24182.0,0.04548397867650224
33009.0,24176.0,0.04796393353030795
33019.0,24177.0,0.05165294195954757
33029.0,24187.0,0.056897546007548754
33039.0,24179.0,0.06392559473551436
33049.0,24188.0,0.07283932000758031
33059.0,24180.0,0.08361256523441024
33069.0,24177.0,0.0960895892848154
33079.0,24183.0,0.1099872010055988
33089.0,24188.0,0.12490482566359194
33099.0,24191.0,0.1403442977282072
33109.0,24180.0,0.15573471367723485
33119.0,24196.0,0.1704556372125928
33128.0,24184.0,0.1838556184823079
33139.0,24190.0,0.19526575476143596
33149.0,24179.0,0.20400878465101813
33159.0,24177.0,0.20940738927042382
33169.0,24187.0,0.21080009997028532
33179.0,24187.0,0.20757326113411131
33189.0,24190.0,0.19921019830717732
33199.0,24198.0,0.18534955488266897
33209.0,24190.0,0.1658401049952326
33219.0,24186.0,0.14078012288072117
33229.0,24179.0,0.11053528202047815
33239.0,24192.0,0.07573774922544108
33249.0,24183.0,0.03727281405258241
33259.0,24188.0,-0.003745173680606895
33268.0,24185.0,-0.0460112315777861
33279.0,24186.0,-0.0880866815632861
33289.0,24166.0,-0.12847587258958984
33299.0,24166.0,-0.16571805291913383
33309.0,24176.0,-0.1984811884304334
33319.0,24166.0,-0.22564161983943992
33329.0,24173.0,-0.2463408501880788
33339.0,24176.0,-0.2600197131340553
33349.0,24173.0,-0.26643402320769766
33359.0,24163.0,-0.26565659521408813
33369.0,24165.0,-0.2580675241748885
33379.0,24177.0,-0.24432831252066609
33389.0,24175.0,-0.22533467109157707
33399.0,24178.0,-0.20215092728441145
33408.0,24180.0,-0.17593632323657962
33419.0,24183.0,-0.14787343552948626
33429.0,24176.0,-0.11910558714348748
33439.0,24179.0,-0.09068676265494886
33449.0,24183.0,-0.06354350769618049
33459.0,24182.0,-0.03844604180027748
33469.0,24186.0,-0.01598770078458143
33479.0,24185.0,0.003425354942207585
33489.0,24182.0,0.01957196972093279
33499.0,24181.0,0.03240145327290891
33509.0,24179.0,0.04201041569466599
33519.0,24185.0,0.04861745797366905
33529.0,24187.0,0.052541163949939296
33539.0,24180.0,0.05418238634474703
33548.0,24190.0,0.0540084242166741
33559.0,24185.0,0.052536839853627594
33569.0,24182.0,0.050317649118402905
33579.0,24183.0,0.04791343378339384
33589.0,24187.0,0.04587908468318783
33599.0,24190.0,0.04474353625848458
33609.0,24181.0,0.044992644365919085
33619.0,24185.0,0.04705027699363214
33629.0,24185.0,0.05125755187284662
33639.0,24193.0,0.05785303816357284
33649.0,24181.0,0.06695475933363464
33659.0,24187.0,0.07854213960252553
33669.0,24180.0,0.09243825800615414
33679.0,24188.0,0.10829718314580826
33689.0,24189.0,0.12560168221581766
33699.0,24189.0,0.1436726050177227
33709.0,24187.0,0.16168715688497087
33719.0,24182.0,0.17870337117735174
33729.0,24186.0,0.19369219900392126
33739.0,24191.0,0.20558184566483034
33749.0,24187.0,0.21331696992763
33759.0,24195.0,0.21592989266967122
33769.0,24195.0,0.21261696863222757
33779.0,24197.0,0.20281156609373197
33789.0,24189.0,0.18624450010462199
33799.0,24192.0,0.16298506519668293
33809.0,24197.0,0.13346060152147687
33819.0,24183.0,0.0984548840782543
33829.0,24191.0,0.059085054526447314
33839.0,24195.0,0.01675736776478715
33849.0,24188.0,-0.026897868366634187
33859.0,24174.0,-0.07011367337519914
33869.0,24173.0,-0.11109434454103416
33879.0,24174.0,-0.1481322273644238
33889.0,24172.0,-0.17971614318446943
33899.0,24168.0,-0.20461900334163022
33909.0,24182.0,-0.22195947385843537
33919.0,24171.0,-0.23123753223288154
33929.0,24168.0,-0.23234730987080757
33939.0,24170.0,-0.2255702108637185
33949.0,24173.0,-0.21154653211849042
33959.0,24179.0,-0.19122246095433978
33969.0,24180.0,-0.1657749984454518
33979.0,24186.0,-0.13652408283321257
33989.0,24189.0,-0.10484410515430014
33999.0,24181.0,-0.07208650077774795
34009.0,24178.0,-0.03952115609766121
34019.0,24179.0,-0.00829634661526958
34029.0,24182.0,0.020590709050498108
34039.0,24188.0,0.046321114345139795
34049.0,24189.0,0.06828141218592607
34059.0,24189.0,0.086085773935653
34069.0,24192.0,0.09958623564677381
34079.0,24182.0,0.10886631611805439
34089.0,24186.0,0.11421805756366017
34099.0,24190.0,0.11610717546480064
34109.0,24183.0,0.11513226412790425
34119.0,24187.0,0.11198146354377839
34129.0,24188.0,0.10738805116885887
34139.0,24185.0,0.1020863951647994
34149.0,24177.0,0.09676966871314577
34159.0,24186.0,0.09205213625780542
34169.0,24186.0,0.0884410825340273
34179.0,24183.0,0.0863215626555673
34189.0,24186.0,0.08595229185270763
34199.0,24188.0,0.0874691795942238
34209.0,24182.0,0.09089396904942453
34219.0,24185.0,0.09614625011657456
34229.0,24189.0,0.10305829919380878
34239.0,24188.0,0.11139262726604095
34249.0,24189.0,0.12085996639759489
34260.0,24192.0,0.1311334444386106
34269.0,24183.0,0.14185549021356264
34279.0,24186.0,0.15263690845496242
34289.0,24183.0,0.16305156132918794
34299.0,24185.0,0.17263297596869284
34309.0,24188.0,0.18087841120967563
34319.0,24185.0,0.1872624126370969
34329.0,24199.0,0.19125818763322452
34339.0,24194.0,0.19236154741091274
34349.0,24186.0,0.19010909128673759
34359.0,24169.0,0.18408477886741895
34369.0,24185.0,0.17392018312984484
34379.0,24183.0,0.15930350161142295
34389.0,24188.0,0.14000808522193262
34400.0,24187.0,0.11593757282595944
34409.0,24194.0,0.08717592126426833
34419.0,24195.0,0.05402927765178108
34429.0,24179.0,0.017047501498149518
34439.0,24170.0,-0.022982161154707297
34449.0,24184.0,-0.06506549638664004
34459.0,24174.0,-0.1080433589216159
34469.0,24183.0,-0.1506365136782253
34479.0,24187.0,-0.1914946498434167
34489.0,24171.0,-0.22925697682437096
34499.0,24160.0,-0.26263007844939124
34509.0,24158.0,-0.29047819329356894
34519.0,24167.0,-0.3119082806879345
34529.0,24165.0,-0.3263308814409544
34540.0,24164.0,-0.3334892794468361
34549.0,24166.0,-0.3334601596672666
34559.0,24174.0,-0.3266313804746473
34569.0,24164.0,-0.31366219243219523
34579.0,24165.0,-0.2954316949174213
34589.0,24172.0,-0.27297911470292646
34599.0,24170.0,-0.24743620852898704
34609.0,24179.0,-0.21995353088786054
34619.0,24180.0,-0.19162721439331162
34629.0,24183.0,-0.16343627773385047
34639.0,24169.0,-0.13620016570282448
34649.0,24172.0,-0.1105605436578351
34659.0,24173.0,-0.08698176128683724
34669.0,24178.0,-0.06575892629440935
34680.0,24181.0,-0.04702639442707007
34689.0,24183.0,-0.030767644173176612
34699.0,24182.0,-0.01683245042083825
34709.0,24173.0,-0.004966527338000084
34719.0,24171.0,0.005146932205912163
34729.0,24175.0,0.01384213275948609
34739.0,24174.0,0.02143391628613611
34749.0,24185.0,0.02819720271269444
34759.0,24183.0,0.03436194047757045
34769.0,24178.0,0.04011612352812703
34779.0,24177.0,0.04560905774846472
34789.0,24174.0,0.05095316896161072
34799.0,24184.0,0.056228849314926777
34809.0,24181.0,0.0614965071740144
34820.0,24188.0,0.0668140464615507
34829.0,24185.0,0.0722526268017701
34839.0,24183.0,0.07790276480743726
34849.0,24179.0,0.08386642537120122
34859.0,24175.0,0.09023681966217506
34869.0,24186.0,0.09707295219191593
34879.0,24181.0,0.10437628890176238
34889.0,24182.0,0.11207199780298913
34899.0,24176.0,0.11999331706794177
34909.0,24185.0,0.12786921203808632
34919.0,24178.0,0.13531839344373023
34929.0,24178.0,0.14185233565651642
34939.0,24184.0,0.1468884836711183
34949.0,24178.0,0.14977450099088305
34960.0,24182.0,0.14982334511546042
34970.0,24180.0,0.14635748447076832
34979.0,24189.0,0.1387599047307878
34989.0,24181.0,0.1265278745260292
34999.0,24174.0,0.10932355013092204
35009.0,24187.0,0.08701760172690978
35019.0,24179.0,0.059725975357396904
35029.0,24188.0,0.027838776619076203
35039.0,24184.0,-0.007964829927396156
35049.0,24183.0,-0.04672425911369464
35059.0,24182.0,-0.08723438419960815
35069.0,24161.0,-0.12811345942880953
35079.0,24163.0,-0.16789563127537147
35089.0,24167.0,-0.20513223873675868
35100.0,24167.0,-0.23848376373689872
35110.0,24167.0,-0.2667927789316623
35119.0,24166.0,-0.28913864801198674
35129.0,24166.0,-0.30487808672035555
35139.0,24156.0,-0.3136735420518518
35149.0,24157.0,-0.3155075142076003
35159.0,24167.0,-0.31067720863889614
35169.0,24163.0,-0.2997644181194278
35179.0,24167.0,-0.28358192668011795
35189.0,24176.0,-0.26310403986941094
35199.0,24175.0,-0.23939135621937283
35209.0,24170.0,-0.21352086303017828
35219.0,24165.0,-0.18653030545955082
35229.0,24168.0,-0.15937784585955467
35240.0,24176.0,-0.13291039891175135
35250.0,24179.0,-0.10783502216471752
35259.0,24174.0,-0.0846955573818841
35269.0,24174.0,-0.06386139508895501
35279.0,24174.0,-0.04553169684775705
35289.0,24170.0,-0.029751925757216267
35299.0,24172.0,-0.016436281876044654
35309.0,24181.0,-0.005389981969359965
35319.0,24181.0,0.0036711612821749354
35329.0,24177.0,0.011100522743154696
35339.0,24175.0,0.017293829987059223
35349.0,24164.0,0.022654620677272332
35359.0,24173.0,0.027559338287914282
35369.0,24182.0,0.03233326601185183
35380.0,24175.0,0.03724304273285535
35390.0,24180.0,0.042501579677417606
35399.0,24178.0,0.04827711867207039
35409.0,24181.0,0.05470122985310526
35419.0,24178.0,0.06187361765534247
35429.0,24173.0,0.06986275156363607
35439.0,24177.0,0.07870365384379771
35449.0,24181.0,0.08839687506402867
35459.0,24184.0,0.09891143248861439
35469.0,24185.0,0.11018904010576355
35479.0,24181.0,0.12214289290203599
35489.0,24179.0,0.1346458810213324
35499.0,24168.0,0.1475094086551118
35509.0,24185.0,0.16046091523165384
35520.0,24176.0,0.17313034209345288
35530.0,24183.0,0.18505072820410337
35539.0,24186.0,0.19567105845387267
35549.0,24180.0,0.20437630112718633
35559.0,24178.0,0.2105102405480211
35569.0,24169.0,0.21340065899299096
35579.0,24179.0,0.21239258497084287
35589.0,24186.0,0.2068974568861011
35599.0,24189.0,0.19645891427402556
35609.0,24190.0,0.1808241034703158
35619.0,24181.0,0.1600034815719535
35629.0,24184.0,0.13430661634051055
35639.0,24180.0,0.10435076103703758
35649.0,24182.0,0.07104495068388994
35660.0,24178.0,0.03555281015090675
35670.0,24180.0,-0.0007642517261399484
35679.0,24176.0,-0.03642224268790312
35689.0,24169.0,-0.06990605166567385
35699.0,24162.0,-0.099772099287965
35709.0,24162.0,-0.12475178823114891
35719.0,24168.0,-0.1438415640391987
35729.0,24157.0,-0.15636787983425662
35739.0,24164.0,-0.16202171713046126
35749.0,24174.0,-0.16086163827046562
35759.0,24169.0,-0.15328799107927546
35769.0,24167.0,-0.1399963595019791
35779.0,24167.0,-0.12191975004507802
35789.0,24170.0,-0.10016359892817342
35800.0,24172.0,-0.07593327151610908
35810.0,24181.0,-0.05045557270681586
35819.0,24181.0,-0.02490097654730126
35829.0,24178.0,-0.0003172329184737403
35839.0,24169.0,0.02241628712444165
35849.0,24175.0,0.042611997576286385
35859.0,24177.0,0.05978220224339823
35869.0,24175.0,0.07363994943283099
35879.0,24181.0,0.08409543681766392
35889.0,24182.0,0.09124620645773154
35899.0,24180.0,0.09535767275861688
35909.0,24177.0,0.09683063447071137
35919.0,24168.0,0.0961557126145741
35929.0,24167.0,0.09386134263196874
35940.0,24176.0,0.09046767863366903
35950.0,24177.0,0.08645757686551224
35960.0,24176.0,0.08226709134915136
35969.0,24186.0,0.07828909527653699
35979.0,24178.0,0.0748805972403113
35989.0,24173.0,0.07236572617352928
35999.0,24171.0,0.0710313174154847
36009.0,24180.0,0.07111929728402783
36019.0,24181.0,0.07282242673502091
36029.0,24180.0,0.07628402382790518
36039.0,24177.0,0.08159595616949185
36049.0,24177.0,0.08879012136983015
36059.0,24176.0,0.09782420393068865
36069.0,24171.0,0.10856649856723846
36080.0,24179.0,0.12078567343201282
36090.0,24179.0,0.1341503744483803
36100.0,24186.0,0.14823975339839277
36109.0,24184.0,0.16256041684432465
36119.0,24183.0,0.1765621985819507
36129.0,24179.0,0.18964720170175992
36139.0,24176.0,0.20117237762726425
36149.0,24175.0,0.2104519463329601
36159.0,24175.0,0.21676902980360466
36169.0,24191.0,0.21940417690971153
36179.0,24182.0,0.21768148857865802
36189.0,24186.0,0.2110244062417179
36199.0,24180.0,0.19901040671784007
36209.0,24180.0,0.1814187716111391
36220.0,24188.0,0.15827132319192705
36230.0,24190.0,0.1298660045028108
36240.0,24186.0,0.09679789152120687
36249.0,24189.0,0.059957986187695905
36259.0,24183.0,0.020501929642129914
36269.0,24171.0,-0.02021313405519748
36279.0,24169.0,-0.06071766800030089
36289.0,24171.0,-0.09953121550486448
36299.0,24168.0,-0.13525981387731204
36309.0,24175.0,-0.166678052272459
36319.0,24170.0,-0.19279256007821322
36329.0,24169.0,-0.21288873517112705
36339.0,24165.0,-0.2265626367213737
36349.0,24162.0,-0.23373631999838831
36360.0,24175.0,-0.23465146604943307
36370.0,24175.0,-0.22983795305836588
36380.0,24176.0,-0.2200614797605901
36389.0,24177.0,-0.20626080107235303
36399.0,24170.0,-0.18948431654300887
36409.0,24174.0,-0.17082952461568854
36419.0,24174.0,-0.15138309389922358
36429.0,24184.0,-0.13215810731462882
36439.0,24186.0,-0.1140294342428492
36449.0,24188.0,-0.09767492697378204
36459.0,24190.0,-0.08353372243223399
36469.0,24186.0,-0.07179094642509865
36479.0,24181.0,-0.062392318049615134
36489.0,24184.0,-0.05508503562242027
