timestamp_ms,ir_value,ir_filtered
6897.0,25569.0,-0.016693578936579856
6908.0,25577.0,-0.011832782618245353
6918.0,25585.0,-0.0071400176844520795
6928.0,25603.0,-0.002795488860926973
6937.0,25601.0,0.0010475323655616798
6947.0,25589.0,0.004272439841400583
6957.0,25581.0,0.006803563776868753
6967.0,25585.0,0.008605248791206572
6977.0,25581.0,0.009677402518918509
6987.0,25580.0,0.010049418239836308
6997.0,25588.0,0.009773846394213765
7007.0,25588.0,0.00892060997188467
7018.0,25578.0,0.007572076382643372
7028.0,25598.0,0.005819024838716462
7038.0,25593.0,0.0037574775499151216
7048.0,25590.0,0.0014861116471800659
7057.0,25589.0,-0.0008963012399717746
7067.0,25585.0,-0.003293703456785037
7077.0,25582.0,-0.005615492813703207
7087.0,25587.0,-0.007778574377810522
7097.0,25588.0,-0.009708192633791475
7107.0,25597.0,-0.011337425077540436
7117.0,25596.0,-0.01260579969751427
7127.0,25588.0,-0.013457889503267298
7138.0,25596.0,-0.013842596503077268
7148.0,25599.0,-0.013713330638525905
7158.0,25595.0,-0.013029032563687114
7167.0,25597.0,-0.011756105142528651
7177.0,25600.0,-0.009871299560477657
7187.0,25584.0,-0.00736530248120036
7197.0,25596.0,-0.004246394372103814
7207.0,25604.0,-0.0005432444087834487
7217.0,25606.0,0.0036939149647597365
7227.0,25615.0,0.008393710001461416
7237.0,25612.0,0.013464961129021204
7248.0,25608.0,0.018798272052490735
7258.0,25614.0,0.0242677441249592
7268.0,25619.0,0.02973325003803905
7278.0,25620.0,0.03504380756686688
7287.0,25629.0,0.040042214259550485
7297.0,25622.0,0.04457071932222477
7307.0,25624.0,0.04847745940253559
7317.0,25641.0,0.0516235804538549
7327.0,25636.0,0.0538909677936402
7337.0,25648.0,0.055190030285749536
7347.0,25643.0,0.05546648213517555
7357.0,25641.0,0.05470608030196982
7368.0,25638.0,0.05293675077155117
7378.0,25636.0,0.05022815955502259
7388.0,25642.0,0.046689219296514796
7397.0,25645.0,0.042463979172688425
7407.0,25638.0,0.0377259034485351
7417.0,25633.0,0.032670230441981946
7427.0,25626.0,0.027504392743698487
7437.0,25629.0,0.022437160852998177
7447.0,25626.0,0.017667565853131877
7457.0,25627.0,0.013374473606570247
7467.0,25615.0,0.009707299620070853
7478.0,25608.0,0.006778316163161518
7488.0,25616.0,0.004657401110483984
7498.0,25620.0,0.0033703114758133266
7507.0,25623.0,0.002901020292114591
7517.0,25642.0,0.003197588692926496
7527.0,25631.0,0.00418015375322142
7537.0,25632.0,0.005749279051494177
7547.0,25629.0,0.007793334952698656
7557.0,25629.0,0.010194536888238953
7567.0,25630.0,0.012834015048061934
7577.0,25633.0,0.015596427347637132
7587.0,25633.0,0.018374421760619417
7598.0,25637.0,0.021073006424078573
7608.0,25645.0,0.02361368737594446
7618.0,25643.0,0.025938023348339747
7627.0,25656.0,0.028010000371573918
7637.0,25651.0,0.029816466374710988
7647.0,25640.0,0.0313649442888898
7657.0,25639.0,0.03267868289771683
7667.0,25633.0,0.03378977919763447
7677.0,25643.0,0.034731940920157245
7687.0,25643.0,0.035534329220690566
7697.0,25639.0,0.036217165773027714
7708.0,25638.0,0.036789183143632505
7718.0,25652.0,0.037246928314830494
7728.0,25649.0,0.0375759191617245
7737.0,25655.0,0.037753214231153964
7747.0,25655.0,0.037750472620607135
7757.0,25648.0,0.03753658322342469
7767.0,25641.0,0.03707939811845278
7777.0,25645.0,0.03634678257098737
7787.0,25640.0,0.03530773879207991
7797.0,25652.0,0.03393434423767588
7807.0,25648.0,0.03220468829299465
7817.0,25641.0,0.030106377545660597
7828.0,25651.0,0.027639992100451215
7838.0,25648.0,0.02482208289791045
7848.0,25658.0,0.021687336832530484
7857.0,25652.0,0.018289193124538243
7867.0,25638.0,0.014698006923964632
7877.0,25639.0,0.010996350151189367
7887.0,25637.0,0.007271994431230202
7897.0,25626.0,0.0036097373971758044
7907.0,25632.0,8.320938454886959e-05
7917.0,25620.0,-0.0032524023593634055
7927.0,25622.0,-0.006365876532410483
7938.0,25622.0,-0.009253003594735474
7948.0,25622.0,-0.011936652225332071
7958.0,25625.0,-0.014463751604768064
7967.0,25625.0,-0.016899557632415702
7977.0,25628.0,-0.019319920938095526
7987.0,25615.0,-0.021802414389615783
7997.0,25630.0,-0.02441705726664794
8007.0,25623.0,-0.02721715016738639
8017.0,25631.0,-0.030230795401135623
8027.0,25641.0,-0.03345405794322098
8037.0,25625.0,-0.036847073989932796
8047.0,25618.0,-0.04033434596264557
8058.0,25616.0,-0.04380964792064191
8068.0,25607.0,-0.04714475479913316
8077.0,25607.0,-0.05020050936621609
8087.0,25602.0,-0.052838748598720904
8097.0,25590.0,-0.05493380802371333
8107.0,25591.0,-0.05638235364375991
8117.0,25598.0,-0.05711022651018459
8127.0,25611.0,-0.05707532451571867
8137.0,25610.0,-0.05626661438962033
8147.0,25610.0,-0.054700535688334974
8157.0,25613.0,-0.052416394438975285
8168.0,25613.0,-0.04947185245708855
8178.0,25614.0,-0.04593904505200364
8188.0,25614.0,-0.04190157369053471
8197.0,25616.0,-0.03745245407929506
8207.0,25614.0,-0.03269293606295252
8217.0,25600.0,-0.02773191031760862
8227.0,25609.0,-0.022685221672465467
8237.0,25622.0,-0.017673808729306555
8247.0,25624.0,-0.012819891462368766
8257.0,25633.0,-0.008241530937339705
8267.0,25626.0,-0.004046794351940061
8278.0,25629.0,-0.0003287377872523509
8288.0,25631.0,0.0028382106227931693
8298.0,25629.0,0.005400439217753732
8307.0,25628.0,0.0073260731786097474
8317.0,25627.0,0.008604823755651792
8327.0,25629.0,0.009247063943897012
8337.0,25624.0,0.009282480190149926
8347.0,25629.0,0.008758574492638357
8357.0,25630.0,0.007739165898246748
8367.0,25636.0,0.006302817500241094
8377.0,25634.0,0.0045407514470043086
8387.0,25619.0,0.0025535975977233586
8398.0,25622.0,0.00044666645770214807
8408.0,25622.0,-0.0016757885020300429
8418.0,25616.0,-0.0037164072678744706
8427.0,25613.0,-0.005589927627298817
8437.0,25611.0,-0.0072272618853181925
8447.0,25609.0,-0.008577910017428638
8457.0,25612.0,-0.009610181430495891
8467.0,25621.0,-0.010309005719017461
8477.0,25627.0,-0.010671714396302894
8487.0,25633.0,-0.010702939692926374
8497.0,25620.0,-0.010410295434093171
8508.0,25608.0,-0.009802219030394651
8518.0,25612.0,-0.00888816154762393
8528.0,25621.0,-0.007680078944924896
8537.0,25612.0,-0.00619402069706647
8547.0,25618.0,-0.004451376454549289
8557.0,25608.0,-0.0024798416006740483
8567.0,25619.0,-0.00031399257086985657
8577.0,25621.0,0.002004836324739003
8587.0,25626.0,0.0044294186671002276
8597.0,25618.0,0.006907797226609067
8607.0,25627.0,0.00938415051528297
8617.0,25611.0,0.011799131081278011
8628.0,25626.0,0.014089918325189998
8638.0,25616.0,0.01619048215502035
8648.0,25625.0,0.018032485702180686
8657.0,25625.0,0.019546963102601445
8667.0,25613.0,0.02066665376923984
8677.0,25621.0,0.02132890182840126
8687.0,25626.0,0.02147927336372158
8697.0,25625.0,0.021076007028554715
8707.0,25627.0,0.020094899446858567
8717.0,25625.0,0.018533817003425178
8727.0,25630.0,0.01641608794818758
8738.0,25621.0,0.013792242249889406
8748.0,25619.0,0.01073974668274964
8758.0,25624.0,0.007360670993066614
8767.0,25614.0,0.0037774979648457305
8777.0,25626.0,0.00012729434914020537
8787.0,25603.0,-0.003445670871476733
8797.0,25608.0,-0.0067986585475871275
8807.0,25598.0,-0.009799861284246232
8817.0,25603.0,-0.012337326531382631
8827.0,25602.0,-0.014326285602424544
8837.0,25592.0,-0.015714237285620405
8848.0,25593.0,-0.01648346536010303
8858.0,25604.0,-0.016650642476579547
8868.0,25602.0,-0.016263285208132045
8877.0,25613.0,-0.015393468565881047
8887.0,25614.0,-0.01412995190022752
8897.0,25606.0,-0.012570152987572577
8907.0,25605.0,-0.010813109134095906
8917.0,25608.0,-0.008953829430199935
8927.0,25612.0,-0.007078811048585748
8937.0,25612.0,-0.0052624990243800435
8947.0,25611.0,-0.0035648586832341556
8957.0,25603.0,-0.002030342743683917
8968.0,25604.0,-0.000688162170490298
8978.0,25611.0,0.0004467223726026487
8988.0,25617.0,0.0013725095052777997
8997.0,25613.0,0.002099413385441593
9007.0,25613.0,0.002647929139882146
9017.0,25600.0,0.0030460544479739378
9027.0,25613.0,0.003325676166656562
9037.0,25608.0,0.003518849042750065
9047.0,25604.0,0.003654594709656826
9057.0,25608.0,0.003756486202415496
9067.0,25606.0,0.0038411904018578373
9078.0,25607.0,0.003918175277543427
9088.0,25610.0,0.003990647229284506
9098.0,25618.0,0.004057534413062979
9107.0,25613.0,0.004116028040957734
9117.0,25622.0,0.004163903267259264
9127.0,25602.0,0.004200845810336718
9137.0,25606.0,0.004228491515448992
9147.0,25604.0,0.004249656111061915
9157.0,25605.0,0.00426772722359145
9167.0,25616.0,0.004286969161450986
9177.0,25605.0,0.004313804453598816
9187.0,25618.0,0.004358588998138223
9198.0,25613.0,0.004437259752832603
9208.0,25616.0,0.00457230984531944
9218.0,25625.0,0.004792587711277745
9227.0,25611.0,0.005131427501183571
9237.0,25608.0,0.005622796270875388
9247.0,25594.0,0.00629577160806023
9257.0,25600.0,0.00716862721384051
9267.0,25606.0,0.00824434077022119
9277.0,25612.0,0.009508853870665645
9287.0,25617.0,0.01093222460498884
9297.0,25618.0,0.012471785335378837
9308.0,25622.0,0.014076069346109337
9318.0,25617.0,0.01568846320936801
9328.0,25615.0,0.01724997350325076
9337.0,25619.0,0.01870101179587744
9347.0,25619.0,0.019982479166718185
9357.0,25611.0,0.021036472158277586
9367.0,25607.0,0.021806899369629713
9377.0,25622.0,0.02224051394225231
9387.0,25617.0,0.022288930805217235
9397.0,25621.0,0.02191166296558158
9407.0,25618.0,0.02107959282280164
9418.0,25619.0,0.01977823747484731
9428.0,25618.0,0.01801046094551535
9438.0,25618.0,0.01579848012119586
9448.0,25628.0,0.013185002992498359
9457.0,25622.0,0.010233134219246485
9467.0,25620.0,0.007024422698885952
9477.0,25606.0,0.003654538917109313
9487.0,25608.0,0.00022677208839288676
9497.0,25604.0,-0.0031556510118166147
9507.0,25600.0,-0.006397145319476725
9517.0,25604.0,-0.009416235122255845
9527.0,25600.0,-0.012150303921143675
9538.0,25597.0,-0.014558338393625856
9548.0,25608.0,-0.016621590914103788
9558.0,25598.0,-0.018342260947842776
9567.0,25606.0,-0.019740533232250727
9577.0,25612.0,-0.02085051584383211
9587.0,25597.0,-0.021715720733198836
9597.0,25597.0,-0.022384661891421995
9607.0,25599.0,-0.022906687674350872
9617.0,25605.0,-0.023327640501558455
9627.0,25610.0,-0.02368509712875166
9637.0,25607.0,-0.024003672036046485
9648.0,25614.0,-0.024291356555236367
9658.0,25612.0,-0.0245378128627879
9668.0,25604.0,-0.024715225853782784
9678.0,25600.0,-0.024781855353432723
9687.0,25599.0,-0.024687752729629184
9697.0,25597.0,-0.024381510082566782
9707.0,25588.0,-0.02381676919440311
9717.0,25600.0,-0.022957366274327373
9727.0,25606.0,-0.02178025435953182
9737.0,25616.0,-0.020276005804013078
9747.0,25608.0,-0.01844766936280387
9757.0,25606.0,-0.016309223341708395
9768.0,25611.0,-0.013884374354122278
9778.0,25617.0,-0.011205673091695078
9788.0,25614.0,-0.008313744938988163
9797.0,25611.0,-0.00525673472084028
9807.0,25615.0,-0.0020900811362649955
9817.0,25612.0,0.0011236314199017604
9827.0,25607.0,0.0043152639205537805
9837.0,25621.0,0.007410717253490901
9847.0,25619.0,0.010333959851411447
9857.0,25629.0,0.013011466158368044
9867.0,25632.0,0.015377416840147349
9877.0,25630.0,0.017378644734449684
9887.0,25630.0,0.018978374420291273
9898.0,25626.0,0.0201582287891659
9908.0,25634.0,0.02091852424458105
9918.0,25629.0,0.02127716107154669
9927.0,25626.0,0.021267355953979297
9937.0,25634.0,0.020934401337823264
9947.0,25623.0,0.020331727156153688
9957.0,25624.0,0.019516620421322895
9967.0,25619.0,0.0185460728459428
9977.0,25631.0,0.01747340731734886
9987.0,25636.0,0.016346165506018702
9997.0,25641.0,0.015204995137872629
10008.0,25621.0,0.014082539118334781
10018.0,25621.0,0.013001482410764752
10028.0,25615.0,0.011972023589402084
10038.0,25633.0,0.010990011040849562
10047.0,25624.0,0.010036788906356557
10057.0,25622.0,0.009080805933435175
10067.0,25615.0,0.008080512111398605
10077.0,25627.0,0.006988424189480336
10087.0,25633.0,0.0057565658001791096
10097.0,25640.0,0.004342961532490961
10107.0,25641.0,0.0027178970416253715
10117.0,25623.0,0.0008682457911378448
10128.0,25616.0,-0.0012011668395767302
10138.0,25623.0,-0.0034687960164265746
10148.0,25618.0,-0.005898836040263655
10157.0,25626.0,-0.008443714990989695
10167.0,25622.0,-0.011046299281200966
10177.0,25618.0,-0.01364207477908959
10187.0,25623.0,-0.01616160738540866
10197.0,25613.0,-0.0185333317242277
10207.0,25628.0,-0.020686530606498648
10217.0,25621.0,-0.022554447761614582
10227.0,25608.0,-0.02407769144490813
10238.0,25603.0,-0.02520793283939196
10248.0,25610.0,-0.025911158765889182
10258.0,25621.0,-0.026169244546134902
10268.0,25617.0,-0.025979240204061692
10277.0,25633.0,-0.025350967396247162
10287.0,25621.0,-0.024304213471928383
10297.0,25613.0,-0.022866677046659404
10307.0,25623.0,-0.02107307182215001
10317.0,25623.0,-0.018964949498780356
10327.0,25623.0,-0.016590624986295082
10337.0,25619.0,-0.014005007074693604
10348.0,25618.0,-0.011269282633244393
10358.0,25620.0,-0.008450072614019519
10368.0,25633.0,-0.0056174865980291745
10378.0,25633.0,-0.0028418822261063945
10387.0,25641.0,-0.00018988066565293446
10397.0,25632.0,0.0022793228913924246
10407.0,25631.0,0.004516509046863381
10417.0,25629.0,0.006483721540728287
10427.0,25637.0,0.008154845309929541
10437.0,25641.0,0.00951610344663606
10447.0,25636.0,0.01056658138674215
10457.0,25643.0,0.011318394230250902
10468.0,25632.0,0.011796122814645121
10478.0,25643.0,0.012035479315922007
10488.0,25639.0,0.012081402957858913
10498.0,25639.0,0.011985751642065421
10507.0,25648.0,0.011804579608605547
10517.0,25633.0,0.011594889568395158
10527.0,25634.0,0.011410848411634901
10537.0,25635.0,0.011299833807037937
10547.0,25636.0,0.011299064740349252
10557.0,25637.0,0.011433477814701828
10567.0,25647.0,0.01171501718045943
10578.0,25639.0,0.012143033378233916
10588.0,25643.0,0.012705240540419166
10598.0,25637.0,0.013378790106987027
10608.0,25645.0,0.014131396636469756
10617.0,25644.0,0.014922671499759612
10627.0,25636.0,0.015705709826647325
10637.0,25636.0,0.01642891847956884
10647.0,25642.0,0.017038342426904177
10657.0,25645.0,0.01748091527731035
10667.0,25651.0,0.017708655773759283
10677.0,25662.0,0.017683114643439392
10688.0,25649.0,0.017378860269024004
10698.0,25638.0,0.016784837473771953
10708.0,25643.0,0.015903282006791114
10718.0,25637.0,0.014747033109846987
10728.0,25636.0,0.013336546869967011
10737.0,25642.0,0.011697560275628559
10747.0,25640.0,0.009859828262594395
10757.0,25642.0,0.007856903653227328
10767.0,25640.0,0.005726597200400762
10777.0,25642.0,0.003511683467533794
10787.0,25650.0,0.0012604767892143247
10797.0,25644.0,-0.0009731930470245938
10808.0,25633.0,-0.0031312077978717765
10818.0,25632.0,-0.005153868980794467
10828.0,25634.0,-0.0069835798702653365
10838.0,25633.0,-0.008568527683129205
10847.0,25640.0,-0.009865701551827014
10857.0,25631.0,-0.010843193758718795
10867.0,25629.0,-0.011482014193069599
10877.0,25629.0,-0.011777423418891243
10887.0,25634.0,-0.011739402082943594
10897.0,25637.0,-0.011391880918651977
10907.0,25634.0,-0.0107708174423234
10917.0,25635.0,-0.00992158583221101
10928.0,25631.0,-0.00889607040620417
10938.0,25641.0,-0.007749539317866935
10948.0,25639.0,-0.006537278091733398
10958.0,25639.0,-0.005311198440128015
10967.0,25640.0,-0.004116848199755525
10977.0,25642.0,-0.0029911507138212817
10987.0,25635.0,-0.001960978295816657
10997.0,25645.0,-0.0010425173905871232
11007.0,25640.0,-0.00024131008984297665
11017.0,25642.0,0.0004470970225689432
11027.0,25645.0,0.0010358552917460468
11038.0,25647.0,0.0015447888747040835
11048.0,25630.0,0.001997586378797763
11058.0,25644.0,0.00241835611274087
11068.0,25636.0,0.0028281012891942852
11077.0,25637.0,0.00324182709985297
11087.0,25638.0,0.003666747799625387
11097.0,25635.0,0.004101852211239522
11107.0,25637.0,0.0045390372304657655
11117.0,25648.0,0.004965902119558908
11127.0,25652.0,0.005369933143862145
11137.0,25651.0,0.005743205372021196
11147.0,25651.0,0.006086319812667604
11158.0,25650.0,0.006410517042400109
11168.0,25647.0,0.006737532463696255
11178.0,25643.0,0.007097309994526579
11188.0,25645.0,0.007524064562225302
11197.0,25646.0,0.008051388377038376
11207.0,25637.0,0.008707064958139823
11217.0,25640.0,0.009508160881035633
11227.0,25644.0,0.010457026187861916
11237.0,25640.0,0.011538821414526562
11247.0,25648.0,0.01272087178632608
11257.0,25646.0,0.013953772553619936
11268.0,25642.0,0.01517397722798774
11278.0,25647.0,0.016307614169921766
11288.0,25657.0,0.017275386325057655
11298.0,25654.0,0.017998262536176746
11307.0,25651.0,0.018403236096328192
11317.0,25654.0,0.018428310964188385
11327.0,25646.0,0.018026308963840252
11337.0,25648.0,0.017167587047816846
11347.0,25652.0,0.015841975121512506
11357.0,25656.0,0.014060148517921039
11367.0,25654.0,0.011854237922507664
11378.0,25654.0,0.009277071388177207
11388.0,25635.0,0.006399514306162246
11398.0,25645.0,0.003306006779317462
11408.0,25639.0,8.912130813676013e-05
11417.0,25645.0,-0.003155893624799023
11427.0,25639.0,-0.006336124307087994
11437.0,25628.0,-0.009365551198711485
11447.0,25627.0,-0.012168995062157966
11457.0,25642.0,-0.01468480589273709
11467.0,25645.0,-0.01686572424516274
11477.0,25642.0,-0.018678292443620983
11487.0,25628.0,-0.020102013723184646
11498.0,25630.0,-0.021129087401879132
11508.0,25637.0,-0.02176445316895001
11518.0,25629.0,-0.0220253740772708
11528.0,25633.0,-0.021940169086066653
11537.0,25644.0,-0.021546177319028692
11547.0,25642.0,-0.02088729696400935
11557.0,25631.0,-0.020011730548648705
11567.0,25628.0,-0.018970497525790234
11577.0,25632.0,-0.017816504637666524
11587.0,25642.0,-0.01660330870120586
11597.0,25643.0,-0.01538304144293452
11608.0,25638.0,-0.014203873520386778
11618.0,25637.0,-0.013107793928111846
11628.0,25641.0,-0.012129068685646891
11638.0,25640.0,-0.011293217389660014
11647.0,25646.0,-0.010616312162440853
11657.0,25642.0,-0.010104691178244442
11667.0,25637.0,-0.009755327143150899
11677.0,25636.0,-0.009556874271530616
11687.0,25640.0,-0.009490990259185761
11697.0,25642.0,-0.009533361452757618
11707.0,25653.0,-0.009654225388905315
11718.0,25643.0,-0.009818806764696066
11728.0,25633.0,-0.009988366366692474
11738.0,25643.0,-0.010122106522096396
11748.0,25645.0,-0.010179432272330405
11757.0,25646.0,-0.01012200497477205
11767.0,25642.0,-0.009915631015122411
11777.0,25640.0,-0.009532326172756008
11787.0,25635.0,-0.008952532516514627
11797.0,25639.0,-0.008166954724475555
11807.0,25646.0,-0.007177328903851065
11817.0,25647.0,-0.0059957978519285336
11827.0,25653.0,-0.0046432178781399425
11838.0,25646.0,-0.003147161451706114
11848.0,25652.0,-0.0015403118614872532
11858.0,25647.0,0.0001404549744473227
11868.0,25650.0,0.0018543775442727015
11877.0,25651.0,0.0035567425494806596
11887.0,25650.0,0.005198680057712692
11897.0,25644.0,0.0067270164360277085
11907.0,25643.0,0.00808449187288383
11917.0,25656.0,0.00921088281846545
11927.0,25658.0,0.01004546417299579
11937.0,25655.0,0.010530576062042054
11948.0,25652.0,0.010615479837612043
11958.0,25648.0,0.010259883646286324
11968.0,25657.0,0.009437160338638888
11978.0,25654.0,0.008137546297819771
11988.0,25663.0,0.006371262591360064
11998.0,25665.0,0.004170948548690757
12007.0,25657.0,0.0015924611631972104
12017.0,25651.0,-0.001286792745782962
12027.0,25643.0,-0.0043721440130093485
12037.0,25647.0,-0.007557804525836369
12047.0,25641.0,-0.010733633802239325
12057.0,25642.0,-0.01379149425302533
12067.0,25642.0,-0.01663060027561266
12078.0,25644.0,-0.01916159084371357
12088.0,25636.0,-0.02130928218055313
12098.0,25641.0,-0.023014165796146343
12108.0,25647.0,-0.024232677139016306
12118.0,25651.0,-0.024936383966583053
12127.0,25645.0,-0.025110686194395843
12137.0,25642.0,-0.024753856428692746
12147.0,25637.0,-0.023876811073143177
12157.0,25639.0,-0.022503227552320284
12167.0,25651.0,-0.02066923038458558
12177.0,25645.0,-0.018422181191349488
12187.0,25653.0,-0.015818776404945445
12198.0,25655.0,-0.01292304363450605
12208.0,25642.0,-0.009804739192221714
12218.0,25650.0,-0.0065382642272007714
12228.0,25651.0,-0.003201707753031037
12238.0,25652.0,0.0001246090689236424
12247.0,25657.0,0.003360423312118567
12257.0,25655.0,0.006428581887271058
12267.0,25661.0,0.009258617858408721
12277.0,25666.0,0.011790574762070866
12287.0,25666.0,0.013978681106245509
12297.0,25676.0,0.01579427736422278
12308.0,25664.0,0.01722729170659118
12318.0,25662.0,0.01828576093853618
12328.0,25659.0,0.018993499935286078
12338.0,25664.0,0.019386722994758954
12348.0,25665.0,0.019510599749649117
12357.0,25668.0,0.019416266091282518
12367.0,25672.0,0.019158211972298823
12377.0,25658.0,0.018791672429211138
12387.0,25663.0,0.018369808092121874
12397.0,25666.0,0.017940943246130502
12407.0,25663.0,0.01754639323751526
12417.0,25670.0,0.017219137862871638
12428.0,25667.0,0.01698317461341848
12438.0,25664.0,0.016853220891189406
12448.0,25666.0,0.016834541752584104
12458.0,25665.0,0.016922930653499185
12468.0,25670.0,0.017105011255364115
12477.0,25668.0,0.01735889683863245
12487.0,25664.0,0.017655042784778027
12497.0,25664.0,0.017957165455855233
12507.0,25671.0,0.018223355082782257
12517.0,25662.0,0.018407612593627505
12527.0,25672.0,0.018461858595951904
12538.0,25668.0,0.01833827723489329
12548.0,25666.0,0.01799179479436343
12558.0,25667.0,0.017382507711963136
12568.0,25664.0,0.01647801379851269
12578.0,25671.0,0.01525573916456702
12587.0,25667.0,0.013705264474304944
12597.0,25669.0,0.011830405813281998
12607.0,25661.0,0.009650690847548542
12617.0,25669.0,0.007202031214903873
12627.0,25664.0,0.004536604316834521
12637.0,25672.0,0.0017219138562058198
12648.0,25667.0,-0.0011612614961053348
12658.0,25656.0,-0.004022451607087759
12668.0,25650.0,-0.006766689777852029
12678.0,25653.0,-0.009300635259534076
12688.0,25659.0,-0.011538432192153333
12697.0,25657.0,-0.013406469271732752
12707.0,25652.0,-0.014847019379189705
12717.0,25652.0,-0.015821091143210817
12727.0,25652.0,-0.01631053073622028
12737.0,25644.0,-0.016319049275519443
12747.0,25659.0,-0.015871778329605516
12757.0,25660.0,-0.015013167733946129
12768.0,25655.0,-0.013803533708159822
12778.0,25652.0,-0.012314965953411382
12788.0,25663.0,-0.010627092446273209
12798.0,25657.0,-0.008822755555065337
12808.0,25663.0,-0.006983658914505083
12817.0,25666.0,-0.005186316011295752
12827.0,25661.0,-0.0034987255603197336
12837.0,25655.0,-0.001978075175318998
12847.0,25664.0,-0.0006694263416328625
12857.0,25660.0,0.0003950394276912881
12867.0,25663.0,0.0011966006484688406
12878.0,25667.0,0.0017304411162927722
12888.0,25665.0,0.0020057481276888507
12898.0,25662.0,0.002045181759809915
12908.0,25660.0,0.0018835540132901168
12918.0,25669.0,0.001565848241152453
12927.0,25663.0,0.0011448282382693928
12937.0,25665.0,0.0006782668337384942
12947.0,25654.0,0.0002256884429049004
12957.0,25656.0,-0.0001551759948721452
12967.0,25660.0,-0.00041156985643078076
12977.0,25666.0,-0.0004978507464396295
12988.0,25662.0,-0.0003764643164046959
12998.0,25667.0,-1.82324570489802e-05
13008.0,25655.0,0.0005974680007122653
13018.0,25668.0,0.0014824259289343733
13028.0,25660.0,0.0026393648410496873
13038.0,25670.0,0.004061923639747054
13047.0,25663.0,0.005734779912271613
13057.0,25667.0,0.00763371209218183
13067.0,25660.0,0.009725520108670936
13077.0,25666.0,0.011967995806839278
13087.0,25664.0,0.014310331534345746
13097.0,25668.0,0.01669430567701244
13108.0,25675.0,0.019056320247582685
13118.0,25674.0,0.021330025137089467
13128.0,25669.0,0.023449006974490604
13138.0,25674.0,0.025349091825838468
13148.0,25676.0,0.026970174932178143
13157.0,25673.0,0.028257688037376143
13167.0,25673.0,0.02916371449771902
13177.0,25666.0,0.02964776886638791
13187.0,25675.0,0.029677509890223844
13197.0,25676.0,0.029229771530718096
13207.0,25668.0,0.02829201425002377
13218.0,25681.0,0.026863928531206796
13228.0,25672.0,0.024958818212683663
13238.0,25664.0,0.022604447862900112
13248.0,25676.0,0.01984320350766625
13258.0,25670.0,0.01673166392000968
13268.0,25672.0,0.013339621451171615
13277.0,25669.0,0.009748259363818906
13287.0,25663.0,0.006047141691715455
13297.0,25651.0,0.0023300366209822016
13307.0,25661.0,-0.001309876745512357
13317.0,25657.0,-0.004784550201631967
13328.0,25659.0,-0.008014758803955494
13338.0,25655.0,-0.010932954520416286
13348.0,25647.0,-0.013485548261667505
13358.0,25654.0,-0.015634630830393566
13368.0,25654.0,-0.01735885379626682
13378.0,25653.0,-0.018653314972644296
13387.0,25653.0,-0.01952868031376445
13397.0,25656.0,-0.0200099467066361
13407.0,25644.0,-0.02013512745482929
13417.0,25646.0,-0.019953882014031758
13427.0,25648.0,-0.019525751089981485
13437.0,25652.0,-0.018917480505603976
13448.0,25658.0,-0.01819926801391668
13458.0,25661.0,-0.017440426368859698
13468.0,25646.0,-0.016705368725986776
13478.0,25659.0,-0.016050634489941578
13488.0,25644.0,-0.015523039696893564
13497.0,25654.0,-0.015158541381325436
13507.0,25652.0,-0.014981356019775306
13517.0,25657.0,-0.015003114664793015
13527.0,25653.0,-0.015222189235305434
13537.0,25655.0,-0.0156235506387313
13547.0,25654.0,-0.0161794459777127
13558.0,25654.0,-0.01685098063846286
13568.0,25651.0,-0.017590570498020947
13578.0,25647.0,-0.01834513017794843
13588.0,25647.0,-0.019059669431615512
13598.0,25648.0,-0.019680775881265676
13608.0,25654.0,-0.02015950579505545
13617.0,25651.0,-0.02045355838469067
13627.0,25642.0,-0.02052896885957788
13637.0,25648.0,-0.02036148653108008
13647.0,25656.0,-0.019937425514302925
13657.0,25648.0,-0.019253757898208206
13668.0,25658.0,-0.018317667645254408
13678.0,25652.0,-0.017146058229718566
13688.0,25645.0,-0.015765343903981627
13698.0,25648.0,-0.014211455825381842
13708.0,25655.0,-0.012529577015286508
13718.0,25648.0,-0.010773072040806077
13727.0,25656.0,-0.009001476924836108
13737.0,25660.0,-0.007277770805337856
13747.0,25657.0,-0.005665302058798559
13757.0,25653.0,-0.0042248362852798
13767.0,25653.0,-0.0030120263738693397
13777.0,25665.0,-0.002075191453172257
13788.0,25658.0,-0.0014532157087635612
13798.0,25659.0,-0.001173769051688367
13808.0,25646.0,-0.001252214549385973
13818.0,25658.0,-0.0016911181040723017
13828.0,25656.0,-0.0024798064034396656
13838.0,25662.0,-0.0035936098376639003
13847.0,25656.0,-0.004993062139764301
13857.0,25660.0,-0.006623681696742334
13867.0,25654.0,-0.00841680349554793
13877.0,25652.0,-0.010291586990706826
13887.0,25657.0,-0.01215804853111317
13898.0,25658.0,-0.013920882470139352
13908.0,25651.0,-0.015484015717943332
13918.0,25650.0,-0.016755999636550268
13928.0,25638.0,-0.017656073095899307
13938.0,25651.0,-0.018120181352402415
13948.0,25643.0,-0.01810598995422617
13957.0,25648.0,-0.01759624476033202
13967.0,25646.0,-0.016600314850806444
13977.0,25639.0,-0.015153941015152515
13987.0,25648.0,-0.013317086090581822
13997.0,25651.0,-0.011169678819332186
14008.0,25662.0,-0.008805328852854625
14018.0,25664.0,-0.0063237816187653685
14028.0,25663.0,-0.003823475197858913
14038.0,25653.0,-0.0013955260135020357
14048.0,25656.0,0.0008802629427411322
14058.0,25659.0,0.0029376973638252707
14067.0,25661.0,0.004725482767308246
14077.0,25662.0,0.006207864114983389
14087.0,25654.0,0.007364535296112756
14097.0,25661.0,0.00818975317859976
14107.0,25659.0,0.008690884328110307
14117.0,25658.0,0.008886708138479173
14128.0,25660.0,0.008805640157015158
14138.0,25665.0,0.008483897606707242
14148.0,25647.0,0.007963568660623805
14158.0,25658.0,0.007290627084305904
14168.0,25658.0,0.006513222714403992
14178.0,25663.0,0.005680628320117281
14187.0,25660.0,0.004842728207542112
14197.0,25658.0,0.004049469549398885
14207.0,25651.0,0.0033498226700035714
14217.0,25661.0,0.002790292223494624
14227.0,25652.0,0.0024133350839581082
14238.0,25659.0,0.0022559410925096883
14248.0,25663.0,0.0023483611867299164
14258.0,25653.0,0.002712769165323496
14268.0,25646.0,0.0033616494964866283
14278.0,25661.0,0.004296091101766247
14288.0,25656.0,0.0055045655398100165
14297.0,25655.0,0.006962537498906874
14307.0,25663.0,0.008632737165691648
14317.0,25654.0,0.010465807996760064
14327.0,25652.0,0.012401238373189526
14337.0,25655.0,0.01436876351565109
14347.0,25655.0,0.016290699345227855
14358.0,25666.0,0.018085600319041977
14368.0,25667.0,0.019673093675312444
14378.0,25668.0,0.02097911199922752
14388.0,25660.0,0.021940503159756597
14398.0,25665.0,0.022508350181538416
14408.0,25662.0,0.022649955958720106
14418.0,25656.0,0.022349798266160553
14428.0,25662.0,0.02160979782112247
14437.0,25662.0,0.02044920803569713
14447.0,25668.0,0.018904238610158303
14457.0,25656.0,0.017027130047852848
14467.0,25658.0,0.01488424579296224
14477.0,25660.0,0.012553085359727935
14488.0,25658.0,0.010118473813184752
14498.0,25649.0,0.007668148869530282
14508.0,25652.0,0.005287897904347593
14518.0,25645.0,0.0030566297339502486
14528.0,25644.0,0.0010420054366722146
14538.0,25647.0,-0.0007027655308272534
14548.0,25648.0,-0.0021405701645485146
14557.0,25654.0,-0.0032504712497437504
14567.0,25646.0,-0.004026674639688541
14577.0,25644.0,-0.004477015893156174
14587.0,25649.0,-0.0046213101671022175
14598.0,25644.0,-0.00448951145292281
14608.0,25647.0,-0.004119558109576175
14618.0,25647.0,-0.0035549390581229366
14628.0,25644.0,-0.0028420964866602526
14638.0,25639.0,-0.0020277323346376747
14648.0,25657.0,-0.0011559615216175845
14658.0,25655.0,-0.0002653297861461358
14667.0,25649.0,0.0006137899436267892
14677.0,25648.0,0.0014605720404828088
14687.0,25641.0,0.002263504527841422
14697.0,25645.0,0.0030190011948318177
14707.0,25641.0,0.003729708281896907
14718.0,25652.0,0.004403188209977099
14728.0,25650.0,0.005051189100964808
14738.0,25654.0,0.005689171428749188
14748.0,25637.0,0.00633550722984077
14758.0,25651.0,0.007010081682134825
14768.0,25644.0,0.007732616915773446
14778.0,25650.0,0.008521212963629506
14787.0,25651.0,0.009391254210792446
14797.0,25645.0,0.01035449131052179
14807.0,25637.0,0.011418145352351547
14817.0,25654.0,0.012584255393271068
14828.0,25648.0,0.013849733912127335
14838.0,25652.0,0.01520724080862315
14848.0,25657.0,0.0166464142361964
14858.0,25651.0,0.018154832052656486
14868.0,25651.0,0.01971826864798937
14878.0,25650.0,0.021320143865255773
14888.0,25654.0,0.022940419769034014
14897.0,25649.0,0.024554325851054444
14907.0,25648.0,0.026131190153373857
14917.0,25651.0,0.027633643517404105
14927.0,25650.0,0.029017550601819993
14937.0,25650.0,0.03023294658264288
14948.0,25661.0,0.031226020817139027
14958.0,25651.0,0.031941916356632356
14968.0,25659.0,0.032327885469441535
14978.0,25644.0,0.03233636350461654
14988.0,25655.0,0.03192787411591377
14998.0,25651.0,0.031074013986870958
15008.0,25659.0,0.02976069039093891
15017.0,25664.0,0.02799130442797432
15027.0,25654.0,0.025789057699034865
15037.0,25645.0,0.02319748656289156
15047.0,25648.0,0.02027894692060717
15058.0,25642.0,0.017111639386697502
15068.0,25651.0,0.013786056572847295
15078.0,25644.0,0.01040131801353141
15088.0,25648.0,0.0070613127353308614
15098.0,25637.0,0.0038703640111230884
15108.0,25637.0,0.0009283471831600723
15118.0,25639.0,-0.0016743969981572483
15127.0,25633.0,-0.003861794487525566
15137.0,25636.0,-0.005575979620349047
15147.0,25627.0,-0.006780188238075632
15157.0,25633.0,-0.007460329282273511
15168.0,25635.0,-0.007624911897342729
15178.0,25641.0,-0.007303221961600493
15188.0,25643.0,-0.006542146912388267
15198.0,25640.0,-0.005402485000135437
15208.0,25631.0,-0.003955540217566295
15218.0,25640.0,-0.0022802495541289327
15228.0,25636.0,-0.0004604806367149293
15238.0,25640.0,0.0014179701294783212
15247.0,25642.0,0.003270821587485363
15257.0,25648.0,0.0050190156454208
15267.0,25641.0,0.006592316735927076
15277.0,25648.0,0.007932369275616052
15288.0,25644.0,0.008994936735113661
15298.0,25646.0,0.009751273653048695
15308.0,25654.0,0.010188654000478616
15318.0,25642.0,0.010309994500104646
15328.0,25643.0,0.010132477596129874
15338.0,25646.0,0.009685328925083342
15348.0,25643.0,0.009007235436983277
15357.0,25646.0,0.00814386260980721
15367.0,25650.0,0.007145624333758695
15377.0,25645.0,0.006065604320018801
15387.0,25641.0,0.00495743447902306
15398.0,25645.0,0.003873103176158776
15408.0,25647.0,0.0028609566858654135
15418.0,25652.0,0.0019641184061758876
15428.0,25644.0,0.0012191562772266061
15438.0,25644.0,0.000654626623375143
15448.0,25645.0,0.00028941346573242363
15458.0,25646.0,0.000131184555155041
15467.0,25648.0,0.0001753211086269107
15477.0,25651.0,0.00040440403936230386
15487.0,25641.0,0.0007881183556713796
15497.0,25647.0,0.0012835032465481277
15507.0,25649.0,0.001835756279584527
15518.0,25648.0,0.002379905968613004
15528.0,25652.0,0.002843417161453751
15538.0,25656.0,0.0031494983558881698
15548.0,25644.0,0.003220768516564876
15558.0,25650.0,0.002983044759814933
15568.0,25659.0,0.0023692942217195287
15578.0,25658.0,0.001323821292304197
15587.0,25659.0,-0.00019372677660531686
15597.0,25657.0,-0.0022053567955520733
15607.0,25647.0,-0.004713323885866982
15617.0,25644.0,-0.007700271433065532
15628.0,25654.0,-0.011130256164008484
15638.0,25650.0,-0.014949886110921842
15648.0,25655.0,-0.019089345465201687
15658.0,25656.0,-0.02346375115496505
15668.0,25640.0,-0.027975491216308088
15678.0,25645.0,-0.03251785204263928
15688.0,25645.0,-0.0369796209427004
15697.0,25639.0,-0.041250004344508956
15707.0,25636.0,-0.04522335828128434
15717.0,25644.0,-0.048803416078955913
15727.0,25633.0,-0.05190672015659893
15738.0,25643.0,-0.05446509317823562
15748.0,25635.0,-0.056427162708789336
15758.0,25645.0,-0.057759022646544714
15768.0,25647.0,-0.05844421937652008
15778.0,25644.0,-0.05848347925944051
15788.0,25648.0,-0.057894740804107094
15798.0,25643.0,-0.05671388558650294
15808.0,25651.0,-0.05499618882036165
15817.0,25645.0,-0.05281825633740023
15827.0,25651.0,-0.05028015590719468
15837.0,25633.0,-0.04750737029341619
15847.0,25652.0,-0.04465190928942388
15858.0,25652.0,-0.04189167136838411
15868.0,25657.0,-0.0394274789618751
15878.0,25654.0,-0.0374779828933928
15888.0,25653.0,-0.03627300738747228
15898.0,25642.0,-0.03604558140936132
15908.0,25658.0,-0.037022355502524
15918.0,25662.0,-0.039411979972356646
15927.0,25656.0,-0.04339165561207363
15937.0,25659.0,-0.049092935588338577
15947.0,25653.0,-0.05658807004860697
15957.0,25655.0,-0.06587781001362265
15968.0,25656.0,-0.07688133612063598
15978.0,25653.0,-0.08942909240766253
15988.0,25653.0,-0.10325954993077907
15998.0,25646.0,-0.11802101276221105
16008.0,25625.0,-0.1332793117525242
16018.0,25630.0,-0.14853152538872555
16028.0,25615.0,-0.1632249822028675
16038.0,25614.0,-0.1767803167761135
16047.0,25601.0,-0.1886173735706068
16057.0,25584.0,-0.19818271693524037
16067.0,25579.0,-0.2049770407841675
16077.0,25594.0,-0.2085802180688589
16088.0,25595.0,-0.20867192312248625
16098.0,25601.0,-0.20504697831784627
16108.0,25598.0,-0.19762582265645456
16118.0,25595.0,-0.18646071059791344
16128.0,25598.0,-0.17173754906335534
16138.0,25602.0,-0.1537724728341561
16148.0,25619.0,-0.13300197904194824
16157.0,25638.0,-0.10996593438793323
16167.0,25646.0,-0.08528385178051813
16177.0,25663.0,-0.059625904683189804
16187.0,25679.0,-0.0336806361709762
16198.0,25707.0,-0.008121389021136892
16208.0,25721.0,0.016426237805448246
16218.0,25727.0,0.0394131104174431
16228.0,25722.0,0.06038876095857409
16238.0,25730.0,0.07901556971581045
16248.0,25746.0,0.09507506871155175
16258.0,25761.0,0.108467387020313
16268.0,25776.0,0.11920476213968703
16277.0,25782.0,0.12739987588382634
16287.0,25785.0,0.1332500845234629
16297.0,25777.0,0.1370189984233028
16307.0,25772.0,0.1390169162934212
16318.0,25766.0,0.13958141690251658
16328.0,25762.0,0.13905914413098033
16338.0,25754.0,0.13778955287627484
16348.0,25760.0,0.13609112788536948
16358.0,25778.0,0.13425035633366353
16368.0,25787.0,0.13251353596436402
16378.0,25789.0,0.1310813387885962
16388.0,25795.0,0.13010592775049004
16397.0,25802.0,0.12969033981637423
16407.0,25800.0,0.1298898008979827
16417.0,25796.0,0.13071462137737294
16428.0,25799.0,0.13213433002062275
16438.0,25793.0,0.13408273222282474
16448.0,25793.0,0.13646361896956888
16458.0,25782.0,0.13915689887939245
16468.0,25758.0,0.1420249709306871
16478.0,25751.0,0.14491919449331578
16488.0,25742.0,0.1476863416544977
16498.0,25742.0,0.15017493138111587
16507.0,25751.0,0.1522413440180408
16517.0,25760.0,0.1537555976663358
16527.0,25751.0,0.15460663626283674
16538.0,25752.0,0.15470693524317433
16548.0,25742.0,0.1539961783397076
16558.0,25740.0,0.1524437099737234
16568.0,25733.0,0.1500494750986923
16578.0,25731.0,0.14684331655335875
16588.0,25726.0,0.14288279558676006
16598.0,25730.0,0.1382499067293507
16608.0,25723.0,0.13304695958802648
16618.0,25723.0,0.1273916029703645
16627.0,25713.0,0.12141080417992921
16637.0,25706.0,0.1152337601169588
16647.0,25699.0,0.10898411994193143
16658.0,25701.0,0.10277227161867886
16668.0,25694.0,0.09668846972392019
16678.0,25684.0,0.09079725772618565
16688.0,25684.0,0.08513340838876396
16698.0,25674.0,0.07969970393597046
16708.0,25669.0,0.0744670062354406
16718.0,25670.0,0.06937701443923523
16728.0,25674.0,0.06434787461868179
16737.0,25673.0,0.0592822718890314
16747.0,25662.0,0.05407695038511116
16757.0,25651.0,0.048632410341264955
16768.0,25658.0,0.042862091717627136
16778.0,25650.0,0.03670097553338576
16788.0,25662.0,0.030113426369263775
16798.0,25649.0,0.023099423329394624
16808.0,25643.0,0.015697867336427574
16818.0,25635.0,0.007985913884458387
16828.0,25636.0,7.405454239969877e-05
16838.0,25615.0,-0.007902703661476088
16848.0,25606.0,-0.015796898425621878
16857.0,25592.0,-0.02346276633608807
16867.0,25580.0,-0.03077064685962035
16877.0,25573.0,-0.0376193976262797
16888.0,25573.0,-0.04394473976844582
16898.0,25577.0,-0.04972212540214691
16908.0,25580.0,-0.054963851889334725
16918.0,25594.0,-0.05971146947321408
16928.0,25569.0,-0.06402557238287374
16938.0,25566.0,-0.067975269768119
16948.0,25567.0,-0.07162874438219595
16958.0,25567.0,-0.07504516570448636
16967.0,25555.0,-0.07826797809812876
16977.0,25552.0,-0.08131993165640282
16987.0,25550.0,-0.084200165237612
16998.0,25547.0,-0.08688328238201556
17008.0,25542.0,-0.08932029156807382
17018.0,25536.0,-0.09144141301568035
17028.0,25537.0,-0.09316069943441993
17038.0,25523.0,-0.09438221592835484
17048.0,25528.0,-0.09500735050518316
17058.0,25524.0,-0.09494271021109549
17068.0,25509.0,-0.09410804975478379
17077.0,25514.0,-0.09244367252595484
17087.0,25518.0,-0.08991659275559258
17097.0,25502.0,-0.08652478115481584
17108.0,25515.0,-0.08229917061847007
17118.0,25511.0,-0.07730333441159806
17128.0,25513.0,-0.07163087250999767
17138.0,25511.0,-0.06540081674359285
17148.0,25517.0,-0.058751543370145855
17158.0,25511.0,-0.05183364048464856
17168.0,25520.0,-0.04480215219368127
17178.0,25519.0,-0.037808671084827605
17188.0,25527.0,-0.030993866730735665
17197.0,25530.0,-0.024481255474545632
17207.0,25516.0,-0.018373162671056497
17217.0,25512.0,-0.012749522474787918
17228.0,25511.0,-0.007669274569564632
17238.0,25500.0,-0.0031732104165696877
17248.0,25507.0,0.0007131716971243634
17258.0,25515.0,0.0039779327130624815
17268.0,25514.0,0.006622477256974762
17278.0,25515.0,0.008662319908508
17288.0,25519.0,0.010127734773046142
17298.0,25510.0,0.011063251884265596
17307.0,25509.0,0.011525328476551508
17317.0,25500.0,0.011578009620061508
17327.0,25492.0,0.0112869774479944
17338.0,25489.0,0.01071290457414817
17348.0,25484.0,0.009905307115050943
17358.0,25481.0,0.008898044667036576
17368.0,25484.0,0.007707275554931618
17378.0,25477.0,0.00633220523224649
17388.0,25479.0,0.004758520538415452
17398.0,25483.0,0.0029640862316346684
17408.0,25471.0,0.0009262522690049304
17417.0,25481.0,-0.0013700553667097095
17427.0,25487.0,-0.0039243731932953815
17437.0,25474.0,-0.006713959191726271
17448.0,25473.0,-0.009689569457026821
17458.0,25463.0,-0.012774706595150204
17468.0,25464.0,-0.01586842885861483
17478.0,25455.0,-0.018851176183401593
17488.0,25447.0,-0.021592901987876178
17498.0,25440.0,-0.02396267779245602
17508.0,25443.0,-0.02583867362699553
17518.0,25433.0,-0.027117321240040456
17528.0,25440.0,-0.02772074496701193
17537.0,25433.0,-0.02760196013311668
17547.0,25430.0,-0.02674763391651637
17557.0,25427.0,-0.025178290324158036
17568.0,25441.0,-0.022945783660415355
17578.0,25439.0,-0.020128055141422997
17588.0,25442.0,-0.016821823499258013
17598.0,25449.0,-0.013134424260673981
17608.0,25443.0,-0.009176063008501217
17618.0,25434.0,-0.005053423922089296
17628.0,25441.0,-0.000864979036628632
17638.0,25447.0,0.0033023113331091002
17647.0,25443.0,0.007375313019663005
17657.0,25446.0,0.011295984726891818
17667.0,25436.0,0.015021315137607578
17678.0,25444.0,0.01852200697818537
17688.0,25444.0,0.021780404902579795
17698.0,25443.0,0.024788162730631117
17708.0,25445.0,0.02754384720726204
17718.0,25444.0,0.030050506356916234
17728.0,25437.0,0.03231331021584601
17738.0,25440.0,0.03433757472087037
17748.0,25447.0,0.03612766632584268
17757.0,25446.0,0.0376871621373982
17767.0,25458.0,0.039020098401654026
17777.0,25455.0,0.04013255095236979
17788.0,25444.0,0.04103356459260313
17798.0,25441.0,0.04173482784089511
17808.0,25447.0,0.04224937509543291
17818.0,25453.0,0.042590191288033374
17828.0,25447.0,0.04276925139309853
17838.0,25440.0,0.04279685379385765
17848.0,25453.0,0.04268105437557527
17858.0,25452.0,0.04242734620595604
17867.0,25449.0,0.04203862759958031
17877.0,25453.0,0.0415151018982141
17887.0,25447.0,0.040853741479878185
17897.0,25443.0,0.040047302916075805
17908.0,25449.0,0.03908322769453253
17918.0,25450.0,0.037942913466108376
17928.0,25448.0,0.036601640777253974
17938.0,25455.0,0.035029044421496125
17948.0,25437.0,0.03318985126065933
17958.0,25446.0,0.0310448324485453
17968.0,25450.0,0.028552308741763142
17978.0,25442.0,0.025670609856988255
17987.0,25452.0,0.022361484500780678
17997.0,25451.0,0.018594070934904828
18007.0,25444.0,0.014348903360204128
18018.0,25458.0,0.009621402970806757
18028.0,25445.0,0.004424354576000825
18038.0,25447.0,-0.0012110480714833528
18048.0,25450.0,-0.007235862545331053
18058.0,25442.0,-0.013585803192778896
18068.0,25434.0,-0.020185254408263794
18078.0,25437.0,-0.026952521701702762
18088.0,25435.0,-0.0338056028822231
18097.0,25434.0,-0.040667724143174065
18107.0,25435.0,-0.04747225002592773
18117.0,25426.0,-0.054166878746768565
18128.0,25426.0,-0.060717009195969146
18138.0,25424.0,-0.06710793045765344
18148.0,25433.0,-0.07334536427492953
18158.0,25431.0,-0.07945419422902361
18168.0,25428.0,-0.08547578945419126
18178.0,25424.0,-0.09146459895320835
18188.0,25423.0,-0.09748438869633572
18198.0,25421.0,-0.10360400955804555
18208.0,25436.0,-0.10989244982133084
18217.0,25427.0,-0.1164133071262195
18227.0,25423.0,-0.12321937060885446
18237.0,25422.0,-0.13034806888900335
18248.0,25420.0,-0.1378179833800099
18258.0,25414.0,-0.14562611744302034
18268.0,25424.0,-0.15374555483842003
18278.0,25419.0,-0.1621233698775269
18288.0,25419.0,-0.17067901120216883
18298.0,25414.0,-0.17930362657249627
18308.0,25411.0,-0.1878606402718884
18318.0,25416.0,-0.1961875192973601
18327.0,25406.0,-0.20409848614239146
18337.0,25416.0,-0.21138801457540426
18347.0,25412.0,-0.21783507571470856
18358.0,25413.0,-0.2232082205033514
18368.0,25416.0,-0.22727167142157426
18378.0,25420.0,-0.22979256563344194
18388.0,25426.0,-0.230549453994126
18398.0,25422.0,-0.22934222652556477
18408.0,25413.0,-0.22600351675502295
18418.0,25416.0,-0.22041098452277968
18428.0,25418.0,-0.21249894616864068
18437.0,25425.0,-0.2022673618856531
18447.0,25435.0,-0.18978652540741853
18457.0,25443.0,-0.1751965399975035
18468.0,25455.0,-0.1587013558573356
18478.0,25479.0,-0.14055768773050356
18488.0,25499.0,-0.12105973915241605
18498.0,25523.0,-0.10052153517366057
18508.0,25522.0,-0.07925948402392409
18518.0,25520.0,-0.05757774307226185
18528.0,25534.0,-0.035757660337430754
18538.0,25552.0,-0.01405085678592245
18548.0,25559.0,0.007325162721416795
18557.0,25577.0,0.028189442377726612
18567.0,25585.0,0.04839796555714422
18577.0,25595.0,0.06784178086951351
18588.0,25599.0,0.08644285893873176
18598.0,25604.0,0.10414808665674251
18608.0,25621.0,0.12092228907966328
18618.0,25622.0,0.1367413741520004
18628.0,25633.0,0.15158647751661075
18638.0,25648.0,0.16543965209742104
18648.0,25656.0,0.17828136197975153
18658.0,25667.0,0.1900896370788338
18667.0,25677.0,0.20084033250408123
18677.0,25688.0,0.2105077613618887
18687.0,25678.0,0.2190650034696686
18698.0,25683.0,0.22648352392769253
18708.0,25683.0,0.2327324956648529
18718.0,25692.0,0.23777891950401683
18728.0,25709.0,0.24158956568356102
18738.0,25706.0,0.2441349047625436
18748.0,25710.0,0.24539425561560713
18758.0,25718.0,0.2453610797186197
18768.0,25720.0,0.24404762445600375
18777.0,25722.0,0.24148830758796047
18787.0,25721.0,0.23774121490526576
18797.0,25708.0,0.23288728026662314
18808.0,25711.0,0.22702730019222123
18818.0,25710.0,0.22027759657442922
18828.0,25713.0,0.21276534431589705
18838.0,25709.0,0.2046241574416503
18848.0,25707.0,0.1959899891196154
18858.0,25701.0,0.1869972641172926
18868.0,25705.0,0.17777535821478274
18878.0,25702.0,0.16844566764124574
18888.0,25699.0,0.1591193607728173
18897.0,25702.0,0.14989566197739307
18907.0,25695.0,0.14086042278459832
18917.0,25693.0,0.13208477564012996
18928.0,25690.0,0.12362380150119423
18938.0,25688.0,0.11551534693661006
18948.0,25685.0,0.10777924196229406
18958.0,25683.0,0.10041714201994385
18968.0,25679.0,0.0934131719975849
18978.0,25685.0,0.08673552630879276
18988.0,25679.0,0.08033906474852956
18998.0,25678.0,0.07416872608862135
19007.0,25682.0,0.06816345759392481
19017.0,25682.0,0.06226036024596085
19027.0,25670.0,0.05639868919550005
19038.0,25674.0,0.050523375090119865
19048.0,25669.0,0.04458806843487633
19058.0,25674.0,0.038557993176376246
19068.0,25676.0,0.03241271580238719
19078.0,25675.0,0.026148467831962962
19088.0,25663.0,0.019779352537475908
19098.0,25662.0,0.013336973149170065
19108.0,25661.0,0.006868661484996842
19118.0,25664.0,0.0004349274760518806
19128.0,25657.0,-0.00589343332003755
19137.0,25663.0,-0.01203857498239329
19147.0,25649.0,-0.017919348421044666
19157.0,25648.0,-0.02345554827654104
19168.0,25641.0,-0.028572245990097993
19178.0,25652.0,-0.03320344121451901
19188.0,25647.0,-0.03729438402400772
19198.0,25649.0,-0.040802530503841576
19208.0,25651.0,-0.04369762241530136
19218.0,25649.0,-0.045961477356998896
19228.0,25640.0,-0.04758791453094639
19238.0,25647.0,-0.04858293857772387
19248.0,25649.0,-0.0489649581766777
19257.0,25652.0,-0.04876481979448231
19267.0,25652.0,-0.048025850429633275
19277.0,25643.0,-0.04680436317394188
19288.0,25641.0,-0.045170767950681194
19298.0,25640.0,-0.04321074804133377
19308.0,25652.0,-0.041025512680539694
19318.0,25647.0,-0.0387303860354484
19328.0,25649.0,-0.03645169680164608
19338.0,25645.0,-0.03432233730814123
19348.0,25652.0,-0.032476205346599035
19358.0,25653.0,-0.031041537310985096
19368.0,25662.0,-0.03013334536175428
19377.0,25663.0,-0.029845668991250192
19387.0,25658.0,-0.030244744065679726
19397.0,25650.0,-0.03136411286530625
19408.0,25654.0,-0.03320206466443711
19418.0,25646.0,-0.035721067861194014
19428.0,25665.0,-0.038848653144064764
19438.0,25655.0,-0.04247965937811754
19448.0,25650.0,-0.046480395230238954
19458.0,25642.0,-0.05069535804714156
19468.0,25636.0,-0.05495641730356795
19478.0,25639.0,-0.05909349044673046
19487.0,25627.0,-0.06294545837762083
19497.0,25628.0,-0.06637028207798137
19507.0,25619.0,-0.06925346288065197
19518.0,25624.0,-0.07151399928793509
19528.0,25614.0,-0.07310708880823036
19538.0,25631.0,-0.07402313875842484
19548.0,25634.0,-0.0742831925277484
19558.0,25641.0,-0.07393169601437627
19568.0,25629.0,-0.0730282908359829
19578.0,25636.0,-0.071640340184168
19588.0,25629.0,-0.0698371246797274
19598.0,25634.0,-0.06768586115731783
19607.0,25633.0,-0.06524941115065105
19617.0,25629.0,-0.06258557238685013
19628.0,25617.0,-0.05974777987945957
19638.0,25628.0,-0.05678665933631893
19648.0,25628.0,-0.05375148326864308
19658.0,25627.0,-0.05069076568126887
19668.0,25637.0,-0.04765187899552169
19678.0,25633.0,-0.044680056560568844
19688.0,25637.0,-0.04181730766118669
19698.0,25629.0,-0.03910173462623317
19708.0,25632.0,-0.036567445792164636
19717.0,25636.0,-0.034244859086353205
19727.0,25634.0,-0.03216108203404974
19737.0,25623.0,-0.030340247313247092
19748.0,25633.0,-0.028803702765767384
19758.0,25626.0,-0.027569685178471203
19768.0,25634.0,-0.02665206248946773
19778.0,25639.0,-0.02605812894374121
19788.0,25631.0,-0.02578594775446667
19798.0,25630.0,-0.025821976886722827
19808.0,25628.0,-0.026139464671426995
19818.0,25624.0,-0.026697575072597155
19828.0,25638.0,-0.0274409459641663
19837.0,25632.0,-0.02829964882891767
19847.0,25631.0,-0.029190045709495085
19857.0,25623.0,-0.030017241436314023
19868.0,25624.0,-0.030679378328162685
19878.0,25621.0,-0.031073357920930182
19888.0,25616.0,-0.03110127742581301
19898.0,25627.0,-0.030676933704334556
19908.0,25614.0,-0.029731949511355438
19918.0,25611.0,-0.02822125648354007
19928.0,25623.0,-0.026127598638165873
19938.0,25609.0,-0.02346452714495774
19948.0,25621.0,-0.020277461081334238
19957.0,25626.0,-0.016642713891688355
19967.0,25615.0,-0.01266468376518052
19978.0,25614.0,-0.008471566346940062
19988.0,25623.0,-0.0042097064130415226
19998.0,25627.0,-3.635729060941547e-05
20008.0,25632.0,0.003889090164742528
20018.0,25632.0,0.007414609582467474
20028.0,25630.0,0.010404628656271293
20038.0,25627.0,0.0127478411870254
20048.0,25631.0,0.014363413470472222
20058.0,25632.0,0.01520561525770534
20067.0,25639.0,0.01526683516243807
20077.0,25635.0,0.014578567545190223
20087.0,25621.0,0.013209743507530633
20098.0,25618.0,0.011262180831903813
20108.0,25620.0,0.008863827180768426
20118.0,25620.0,0.00616102954667337
20128.0,25621.0,0.0033107382219665204
20138.0,25621.0,0.00047283036434983674
20148.0,25605.0,-0.002197636418446021
20158.0,25606.0,-0.004558192690773934
20168.0,25608.0,-0.006486102682634025
20178.0,25610.0,-0.007883963979649664
20187.0,25608.0,-0.008683279689600826
20197.0,25609.0,-0.008846169297585197
20207.0,25603.0,-0.008365596811518945
20218.0,25607.0,-0.007264301771377062
20228.0,25608.0,-0.005592401113667469
20238.0,25611.0,-0.00342365896180076
20248.0,25609.0,-0.0008506761845847806
20258.0,25611.0,0.002020560542760919
20268.0,25607.0,0.005076404611001354
20278.0,25615.0,0.008201392540876599
20288.0,25621.0,0.01128410399666107
20297.0,25612.0,0.014222703796910898
20307.0,25621.0,0.016929587484448408
20317.0,25613.0,0.019334687227002267
20328.0,25615.0,0.021387373693566757
20338.0,25618.0,0.023057153117901182
20348.0,25623.0,0.02433338699284063
20358.0,25612.0,0.025224064270067986
20368.0,25615.0,0.025753513357521483
20378.0,25609.0,0.02595920292830298
20388.0,25621.0,0.025888168380658473
20398.0,25609.0,0.02559356548774647
20408.0,25611.0,0.02513150829177706
20417.0,25619.0,0.024558213482176093
20427.0,25611.0,0.023927515494813117
20437.0,25605.0,0.023288725192529128
20448.0,25614.0,0.02268481738958778
20458.0,25611.0,0.022151162185953806
20468.0,25613.0,0.02171496452473414
20478.0,25612.0,0.02139521127873042
20488.0,25611.0,0.021202767065777055
20498.0,25608.0,0.021140409867905406
20508.0,25615.0,0.02120279450673981
20518.0,25614.0,0.0213763764512703
20527.0,25608.0,0.021639177955030488
20537.0,25612.0,0.021960200212349613
20547.0,25600.0,0.022298531033854062
20558.0,25605.0,0.022602589464982503
20568.0,25604.0,0.022810183330085502
20578.0,25601.0,0.02284999437253853
20588.0,25608.0,0.022644797025097342
20598.0,25611.0,0.022116339022910277
20608.0,25608.0,0.021191423802498655
20618.0,25603.0,0.019808446902762164
20628.0,25613.0,0.017923720620043392
20638.0,25607.0,0.015517191438759799
20648.0,25611.0,0.01259714355416153
20657.0,25610.0,0.009203282859089551
20667.0,25609.0,0.005407569369471361
20678.0,25599.0,0.0013123373904765563
20688.0,25601.0,-0.0029544149033869467
20698.0,25590.0,-0.007246193714502239
20708.0,25597.0,-0.011406881717262762
20718.0,25584.0,-0.01528048363909201
20728.0,25585.0,-0.018721001427925814
20738.0,25580.0,-0.021601697619050578
20748.0,25580.0,-0.023822927821157042
20758.0,25582.0,-0.025317795757565348
20768.0,25577.0,-0.026055173954604955
20777.0,25588.0,-0.026039968949692092
20787.0,25586.0,-0.02531081443391218
20798.0,25586.0,-0.02393569606632706
20808.0,25591.0,-0.022006216105606234
20818.0,25583.0,-0.0196311201305167
20828.0,25592.0,-0.01692945070961618
20838.0,25597.0,-0.014023523958159336
20848.0,25597.0,-0.011032036203509211
20858.0,25590.0,-0.008063880861379038
20868.0,25600.0,-0.005213211253335364
20878.0,25597.0,-0.002555881124132127
20887.0,25600.0,-0.00014718932744655649
20897.0,25602.0,0.0019790180318018536
20907.0,25595.0,0.003809771922836275
20918.0,25597.0,0.005351000309599121
20928.0,25603.0,0.006624502398145219
20938.0,25598.0,0.007664335146452489
20948.0,25597.0,0.008512886014454503
20958.0,25600.0,0.009216793315704474
20968.0,25594.0,0.00982301094795736
20978.0,25602.0,0.010375411775303872
20988.0,25600.0,0.010912217238841311
20998.0,25598.0,0.011464325355122736
21007.0,25605.0,0.012054440408865046
21017.0,25604.0,0.012696851207556968
21027.0,25596.0,0.013397663171598162
21038.0,25602.0,0.014155334511386026
21048.0,25599.0,0.014961621456627537
21058.0,25602.0,0.01580320445262271
21068.0,25615.0,0.016664060881810494
21078.0,25611.0,0.017528177392997966
21088.0,25609.0,0.01838174201259743
21098.0,25608.0,0.019213950503514095
21108.0,25607.0,0.020016126142875772
21118.0,25595.0,0.02077949984492721
21128.0,25610.0,0.02149237578744672
21138.0,25600.0,0.02213750405945662
21147.0,25603.0,0.02269024886768786
21157.0,25607.0,0.023117786524514246
21167.0,25606.0,0.023379379795650686
21178.0,25603.0,0.023427646751409365
21188.0,25600.0,0.02321066941833651
21198.0,25602.0,0.02267496176993411
21208.0,25607.0,0.021769507133257978
21218.0,25614.0,0.020450856903629605
21228.0,25606.0,0.01868870421317848
21238.0,25604.0,0.01647096777386859
21248.0,25615.0,0.013807632037377724
21258.0,25602.0,0.010732994665124904
21268.0,25610.0,0.007306053143878584
21277.0,25609.0,0.003608708696404162
21287.0,25598.0,-0.0002584433877923932
21298.0,25582.0,-0.004182688720279094
21308.0,25592.0,-0.008047425605990465
21318.0,25579.0,-0.01174060359028157
21328.0,25590.0,-0.015161890449451503
21338.0,25584.0,-0.018227763322668945
21348.0,25592.0,-0.020874429729348994
21358.0,25578.0,-0.02305891159361036
21368.0,25589.0,-0.024758702296074027
21378.0,25585.0,-0.025970220058667892
21388.0,25596.0,-0.026706241791210308
21397.0,25587.0,-0.0269928084318754
21407.0,25586.0,-0.026866331115135835
21418.0,25580.0,-0.02637134553020255
21428.0,25585.0,-0.02555872804312333
21438.0,25585.0,-0.02448380467347975
21448.0,25588.0,-0.023203955672030267
21458.0,25596.0,-0.021775784031447875
21468.0,25589.0,-0.020252315065988433
21478.0,25587.0,-0.018680814553387267
21488.0,25591.0,-0.017101522667729113
21498.0,25587.0,-0.015547122176338636
21507.0,25590.0,-0.014042555759047585
21517.0,25602.0,-0.012604958154224142
21527.0,25587.0,-0.011243776361983076
21538.0,25589.0,-0.009961355103491516
21548.0,25592.0,-0.008754022712554784
21558.0,25594.0,-0.00761326397335203
21568.0,25597.0,-0.006526598829422372
21578.0,25592.0,-0.005478226044809427
21588.0,25595.0,-0.004449689632157443
21598.0,25598.0,-0.003420659094183774
21608.0,25598.0,-0.002369784900063545
21618.0,25599.0,-0.0012757014289384596
21627.0,25600.0,-0.0001183780694275619
21637.0,25597.0,0.0011190346036409875
21648.0,25586.0,0.0024479385721674525
21658.0,25603.0,0.0038720333252572708
21668.0,25595.0,0.00538572840333855
21678.0,25602.0,0.0069736031250025735
21688.0,25607.0,0.00861075124483584
21698.0,25600.0,0.010263550984092684
21708.0,25597.0,0.011890447187930064
21718.0,25600.0,0.01344268721646093
21728.0,25601.0,0.014865400545517429
21738.0,25601.0,0.016099477781226623
21747.0,25609.0,0.017084356151803117
21757.0,25600.0,0.017761457830266683
21768.0,25602.0,0.01807790348649243
21778.0,25609.0,0.01799026112670855
21788.0,25607.0,0.017468218318581356
21798.0,25612.0,0.0164978666766738
21808.0,25603.0,0.015084000532203358
21818.0,25601.0,0.01325093051389794
21828.0,25600.0,0.011041799142191902
21838.0,25608.0,0.008516805187594127
21848.0,25597.0,0.005750684889057471
21858.0,25596.0,0.0028294682667771723
21867.0,25599.0,-0.00015348942705757253
21877.0,25596.0,-0.0031019481628130727
21887.0,25588.0,-0.005921398890546188
21898.0,25590.0,-0.008523617811799448
21908.0,25597.0,-0.01083080577013092
21918.0,25581.0,-0.012778964461862016
21928.0,25588.0,-0.014320375659955873
21938.0,25596.0,-0.015425081842626516
21948.0,25589.0,-0.01608128710397963
21958.0,25584.0,-0.016294915787411667
21968.0,25587.0,-0.01608865301214871
21978.0,25588.0,-0.015500383792444412
21988.0,25588.0,-0.014580723057318131
21998.0,25598.0,-0.013389612439272065
22007.0,25592.0,-0.011992372724672042
22017.0,25599.0,-0.010455849503143808
22027.0,25588.0,-0.008845256918974866
22038.0,25590.0,-0.007221961126239737
22048.0,25589.0,-0.005641929634019977
22058.0,25592.0,-0.004154260269127818
22068.0,25602.0,-0.0027993526487426366
22078.0,25599.0,-0.0016068211028648078
22088.0,25598.0,-0.0005937661325216203
22098.0,25590.0,0.00023595362407388397
22108.0,25601.0,0.000891329236631811
22118.0,25594.0,0.0013930594047151538
22128.0,25599.0,0.0017720033346287206
22137.0,25604.0,0.0020672650543328086
22147.0,25603.0,0.002323706068258339
22158.0,25586.0,0.002588592159440877
22168.0,25591.0,0.002907396029396075
22178.0,25593.0,0.003319510619451057
22188.0,25599.0,0.0038549586578737363
22198.0,25596.0,0.004532618485258155
22208.0,25603.0,0.005359705520387464
22218.0,25595.0,0.0063319707651140825
22228.0,25604.0,0.007434222400237383
22238.0,25594.0,0.008641007253071434
22248.0,25602.0,0.009917467082674006
22257.0,25601.0,0.011220476986865497
22267.0,25604.0,0.01250011897668661
22278.0,25591.0,0.013701403523697987
22288.0,25600.0,0.014766231466439362
22298.0,25606.0,0.01563588347340325
22308.0,25608.0,0.0162542467789991
22318.0,25610.0,0.016571364148236088
22328.0,25601.0,0.016546430172360793
22338.0,25598.0,0.016149627940737064
22348.0,25601.0,0.015362922620964134
22358.0,25599.0,0.014180431465247573
22368.0,25599.0,0.012608910890308012
22377.0,25609.0,0.010668486857226168
22387.0,25597.0,0.008393365142507086
22398.0,25597.0,0.00583206265735861
22408.0,25600.0,0.003046868303003678
22418.0,25606.0,0.00011255649566142545
22428.0,25596.0,-0.002885703732651856
22438.0,25600.0,-0.005855616372119021
22448.0,25583.0,-0.00870245660715599
22458.0,25582.0,-0.011334825519142739
22468.0,25589.0,-0.013670443961385698
22478.0,25592.0,-0.015640875706165257
22487.0,25585.0,-0.017194718610386146
22497.0,25585.0,-0.018299523695329088
22508.0,25578.0,-0.018942709861773897
22518.0,25590.0,-0.019131279955460427
22528.0,25588.0,-0.018890014922782666
22538.0,25590.0,-0.018258249275336685
22548.0,25594.0,-0.01728582210050158
22558.0,25592.0,-0.01602892246543573
22568.0,25595.0,-0.01454640932357917
22578.0,25589.0,-0.012896989177224248
22588.0,25586.0,-0.011137341776464214
22598.0,25594.0,-0.009320900357947583
22607.0,25589.0,-0.007496784431966594
22617.0,25600.0,-0.005708572316065918
22628.0,25596.0,-0.003993008281109684
22638.0,25596.0,-0.0023790140425417874
22648.0,25592.0,-0.0008873252393423816
22658.0,25599.0,0.0004692586293364994
22668.0,25600.0,0.00168527957056328
22678.0,25596.0,0.0027618296911913584
22688.0,25598.0,0.003705483554568444
22698.0,25591.0,0.004526959477991307
22708.0,25598.0,0.005239817662168354
22717.0,25606.0,0.005859603418208496
22727.0,25605.0,0.0064034885105793
22738.0,25594.0,0.006889926135705844
22748.0,25605.0,0.007337788313653326
22758.0,25591.0,0.007764995672408901
22768.0,25605.0,0.008187090110252006
22778.0,25608.0,0.00861612534387254
22788.0,25595.0,0.009059844163410167
22798.0,25599.0,0.009520851209036639
22808.0,25596.0,0.009995783014279976
22818.0,25603.0,0.010474953148279474
22827.0,25611.0,0.010942863570679239
22837.0,25605.0,0.011379346600542696
22847.0,25599.0,0.011760634932766323
22858.0,25599.0,0.01205989621947558
22868.0,25603.0,0.01224747309174322
22878.0,25602.0,0.012291415939533064
22888.0,25609.0,0.012158579577367728
22898.0,25600.0,0.01181607248963267
22908.0,25596.0,0.011232718446067427
22918.0,25600.0,0.010380515360467272
22928.0,25602.0,0.00923646869716681
22938.0,25601.0,0.007785100660969981
22947.0,25609.0,0.00602144677922592
22957.0,25601.0,0.0039539492912174035
22968.0,25598.0,0.0016065942817058139
22978.0,25609.0,-0.000980110827932745
22988.0,25597.0,-0.0037494393979327495
22998.0,25597.0,-0.006630109540621186
23008.0,25599.0,-0.009539354155390582
23018.0,25597.0,-0.01238721616445853
23028.0,25588.0,-0.015081784205739562
23038.0,25586.0,-0.01753505265325029
23048.0,25590.0,-0.019668826583275085
23057.0,25582.0,-0.02141988540345631
23067.0,25586.0,-0.0227437905416593
23077.0,25589.0,-0.023617017459343866
23088.0,25583.0,-0.02403731344210339
23098.0,25589.0,-0.02402238633399218
23108.0,25588.0,-0.023607138558887776
23118.0,25597.0,-0.022839717318776938
23128.0,25599.0,-0.021776881633897526
23138.0,25591.0,-0.020479494949903677
23148.0,25590.0,-0.019008903037815
23158.0,25589.0,-0.017424376052617086
23168.0,25595.0,-0.015781166113100074
23177.0,25601.0,-0.014128686780456966
23187.0,25592.0,-0.012508812306795009
23198.0,25592.0,-0.01095464697480157
23208.0,25596.0,-0.009489880357629408
23218.0,25598.0,-0.008128427907233275
23228.0,25598.0,-0.006874088574572288
23238.0,25603.0,-0.0057203148756999455
23248.0,25604.0,-0.0046504213961415354
23258.0,25595.0,-0.0036385721827675447
23268.0,25598.0,-0.002651687687040335
23278.0,25601.0,-0.001652001590242263
23287.0,25606.0,-0.0005997817245299031
23297.0,25607.0,0.0005439597012804332
23307.0,25597.0,0.0018145017197483662
23318.0,25599.0,0.003239996198740542
23328.0,25600.0,0.004837950401549237
23338.0,25606.0,0.006612340163721875
23348.0,25601.0,0.008551852623755142
23358.0,25602.0,0.010629317841816999
23368.0,25609.0,0.012802272135779655
23378.0,25607.0,0.015014659233706856
23388.0,25608.0,0.01719955720769031
23397.0,25617.0,0.019282633312368742
23407.0,25609.0,0.021185963558569564
23417.0,25612.0,0.022831855130050104
23428.0,25616.0,0.024146423927778098
23438.0,25610.0,0.02506286930782401
23448.0,25609.0,0.02552446700368403
23458.0,25618.0,0.025487349254740707
23468.0,25615.0,0.024923153063483642
23478.0,25609.0,0.023821400255226624
23488.0,25614.0,0.022191306903903814
23498.0,25613.0,0.02006289485850929
23508.0,25616.0,0.01748740530131624
23517.0,25619.0,0.014536789754726553
23527.0,25611.0,0.01130177542761938
23537.0,25596.0,0.00788808431123475
23548.0,25611.0,0.00441097860448721
23558.0,25597.0,0.0009889578013751535
23568.0,25601.0,-0.0022625266355191364
23578.0,25604.0,-0.0052368828486957335
23588.0,25596.0,-0.007841551576998633
23598.0,25593.0,-0.01000246859062911
23608.0,25591.0,-0.011667628159111099
23618.0,25597.0,-0.012809284308980175
23627.0,25598.0,-0.013424347511775379
23637.0,25603.0,-0.01353303126853868
23647.0,25596.0,-0.013176329763461055
23658.0,25596.0,-0.012412993175918015
23668.0,25593.0,-0.011316279082496347
23678.0,25599.0,-0.009970288756802543
23688.0,25613.0,-0.008465648166949025
23698.0,25602.0,-0.006894815405500723
23708.0,25593.0,-0.005347825023431403
23718.0,25601.0,-0.003908997204720751
23728.0,25597.0,-0.0026542644214682665
23738.0,25606.0,-0.0016484228209472055
23747.0,25608.0,-0.0009421075935090686
23757.0,25603.0,-0.000568917457276848
23767.0,25604.0,-0.0005433135153823596
23778.0,25604.0,-0.0008596496055046782
23788.0,25604.0,-0.0014923128092521562
23798.0,25606.0,-0.002396846354519063
23808.0,25601.0,-0.003512035461164211
23818.0,25594.0,-0.004762939651663919
23828.0,25603.0,-0.006064611514370276
23838.0,25602.0,-0.007326025550282298
23848.0,25606.0,-0.008453958870329443
23857.0,25603.0,-0.009357064516429443
23867.0,25603.0,-0.009950592775841482
23877.0,25585.0,-0.010161930152103133
23888.0,25592.0,-0.009936479087849073
23898.0,25599.0,-0.009242772019135781
23908.0,25598.0,-0.00807575560957156
23918.0,25600.0,-0.006457978541606368
23928.0,25593.0,-0.004439074114631116
23938.0,25597.0,-0.002093835913895369
23948.0,25604.0,0.0004812157626310673
23958.0,25605.0,0.00317289276636349
23967.0,25610.0,0.005857686681640356
23977.0,25608.0,0.008408645390956924
23987.0,25601.0,0.010702033406920027
23998.0,25605.0,0.012623457116681136
24008.0,25612.0,0.014073614358556552
24018.0,25612.0,0.01497385424660021
24028.0,25615.0,0.015271244659981363
24038.0,25612.0,0.014942426982612318
24048.0,25607.0,0.013995623506011612
24058.0,25612.0,0.01247058994366712
24068.0,25612.0,0.010436663127538631
24077.0,25608.0,0.0079890655780352
24087.0,25606.0,0.005243468411159555
24097.0,25596.0,0.0023289167467030517
24107.0,25599.0,-0.0006203579998100304
24118.0,25596.0,-0.0034733565982178324
24128.0,25598.0,-0.0061101098525027315
24138.0,25592.0,-0.008428350949097321
24148.0,25596.0,-0.010348852507095193
24158.0,25580.0,-0.011819244903623174
24168.0,25588.0,-0.012815939193475583
24178.0,25592.0,-0.013343583147941785
24188.0,25597.0,-0.013431699071345225
24197.0,25606.0,-0.013128931973546747
24207.0,25605.0,-0.012496166985205618
24217.0,25593.0,-0.011600056216169226
24228.0,25597.0,-0.010508011811811614
24238.0,25599.0,-0.009284789648197716
24248.0,25594.0,-0.007990196720213736
24258.0,25599.0,-0.006677531516163112
24268.0,25591.0,-0.0053925840984006945
24278.0,25598.0,-0.004173002437407374
24288.0,25592.0,-0.003047743557607805
24298.0,25602.0,-0.0020363689577335173
24307.0,25604.0,-0.0011481661086543593
24317.0,25601.0,-0.0003814349368914001
24327.0,25593.0,0.0002765240231799306
24338.0,25598.0,0.0008484910083205549
24348.0,25608.0,0.0013657812607558658
24358.0,25595.0,0.0018664053807277172
24368.0,25599.0,0.002392868089433572
24378.0,25601.0,0.0029894844347722127
24388.0,25596.0,0.0036994101350140995
24398.0,25595.0,0.004561715924136856
24408.0,25598.0,0.005608822125636326
24417.0,25601.0,0.006864635478695285
24427.0,25608.0,0.008343544564310275
24437.0,25601.0,0.010049996952673584
24447.0,25600.0,0.011978149832370208
24458.0,25601.0,0.01411136609997285
24468.0,25604.0,0.01642180914586931
24478.0,25609.0,0.018870503121560953
24488.0,25603.0,0.021407913476136804
24498.0,25601.0,0.023974868112753664
24508.0,25615.0,0.02650379238545097
24518.0,25609.0,0.02892039135166921
24528.0,25613.0,0.031145668392017052
24537.0,25606.0,0.03309789824085111
24547.0,25601.0,0.034694408023330216
24557.0,25606.0,0.035853576765315275
24568.0,25619.0,0.03649772709201487
24578.0,25607.0,0.03655715656004132
24588.0,25609.0,0.035974831033586396
24598.0,25616.0,0.03471107428404694
24608.0,25609.0,0.03274788236730494
24618.0,25610.0,0.03009258004962955
24628.0,25615.0,0.026780441264013712
24638.0,25610.0,0.022875900119901437
24647.0,25611.0,0.018471952182352067
24657.0,25609.0,0.013687324429615958
24667.0,25588.0,0.008661223004456525
24678.0,25596.0,0.0035460157046362196
24688.0,25592.0,-0.0015011632450138586
24698.0,25591.0,-0.006326752310702422
24708.0,25585.0,-0.010788384884068601
24718.0,25589.0,-0.014761563511288376
24728.0,25582.0,-0.018145202046598488
24738.0,25580.0,-0.0208658162038227
24748.0,25580.0,-0.022880128208030974
24757.0,25589.0,-0.024175837608822682
24767.0,25588.0,-0.024770555478921995
24777.0,25579.0,-0.024709384466722478
24787.0,25571.0,-0.024061717972602797
24798.0,25582.0,-0.02291720784235928
24808.0,25591.0,-0.021380298787327674
24818.0,25596.0,-0.019563183142704093
24828.0,25595.0,-0.017578133681558635
24838.0,25583.0,-0.015530690690136054
24848.0,25588.0,-0.013514579684750741
24858.0,25588.0,-0.011608189495295773
24868.0,25596.0,-0.009871961933698103
24877.0,25593.0,-0.008346398777061196
24887.0,25589.0,-0.007050924205933643
24897.0,25594.0,-0.005983887721602647
24908.0,25598.0,-0.005123679462765938
24918.0,25593.0,-0.004430829511505095
24928.0,25600.0,-0.0038511519580294888
24938.0,25595.0,-0.0033200702790519196
24948.0,25589.0,-0.002768094272000126
24958.0,25587.0,-0.0021270907681566363
24968.0,25590.0,-0.0013365613380049495
24978.0,25587.0,-0.00034892546175992965
24987.0,25593.0,0.0008669534647898233
24997.0,25600.0,0.0023242844461902183
25007.0,25596.0,0.004018705601332523
25018.0,25595.0,0.005929932442937175
25028.0,25603.0,0.008024184228223877
25038.0,25602.0,0.010257141759993519
25048.0,25608.0,0.012577207378704517
25058.0,25609.0,0.0149286070814223
25068.0,25605.0,0.01725377668852752
25078.0,25607.0,0.019494666852756744
25088.0,25604.0,0.021592989697618793
25098.0,25606.0,0.0234897821927014
25107.0,25603.0,0.025124796434519193
25117.0,25609.0,0.026436186479065253
25127.0,25599.0,0.02736085394387993
25138.0,25609.0,0.027835719994081812
25148.0,25609.0,0.027800117213719278
25158.0,25616.0,0.027199258057650468
25168.0,25615.0,0.02598827210989761
25178.0,25601.0,0.024135996860903397
25188.0,25604.0,0.02162799747118321
25198.0,25608.0,0.018468993784173465
25208.0,25612.0,0.014685166517019798
25217.0,25613.0,0.010326280511994721
25227.0,25605.0,0.0054668486003655445
25237.0,25605.0,0.00020547130830227294
25248.0,25600.0,-0.005337995061975651
25258.0,25597.0,-0.011027235984292573
25268.0,25597.0,-0.016715791945151014
25278.0,25587.0,-0.022254411758935836
25288.0,25584.0,-0.027498928105341575
25298.0,25577.0,-0.032317940352501046
25308.0,25586.0,-0.03659937671861455
25318.0,25585.0,-0.040255160997932346
25327.0,25585.0,-0.04322382627185898
25337.0,25589.0,-0.045471539251361826
25347.0,25566.0,-0.046992125050987064
25358.0,25584.0,-0.04780624420650903
25368.0,25582.0,-0.04795931062459887
25378.0,25589.0,-0.04751778017550377
25388.0,25584.0,-0.046564141979598545
25398.0,25586.0,-0.045191421574674054
25408.0,25587.0,-0.04349779539883389
25418.0,25592.0,-0.04158152917579431
25428.0,25589.0,-0.03953637026846564
25438.0,25592.0,-0.03744762746105673
25447.0,25595.0,-0.035389163301761326
25457.0,25591.0,-0.033421411372959675
25467.0,25585.0,-0.03159040426895261
25478.0,25600.0,-0.029927566707655576
25488.0,25593.0,-0.028449862728397855
25498.0,25602.0,-0.02716013186746018
25508.0,25595.0,-0.02604785620506721
25518.0,25593.0,-0.025090629923581742
25528.0,25595.0,-0.024256236537687763
25538.0,25601.0,-0.02350489058571375
25548.0,25602.0,-0.022791268211945187
25557.0,25608.0,-0.022066414640523443
25567.0,25598.0,-0.021280003298397555
25577.0,25583.0,-0.020383266206116663
25588.0,25607.0,-0.019332181317271324
25598.0,25597.0,-0.01808990699668374
25608.0,25617.0,-0.016627854454484853
25618.0,25614.0,-0.014925863808706696
25628.0,25607.0,-0.012972626664985784
25638.0,25602.0,-0.01076726947718337
25648.0,25607.0,-0.008322086401633172
25658.0,25607.0,-0.005665558156590998
25667.0,25611.0,-0.0028447301950706404
25677.0,25609.0,7.348380977448e-05
25687.0,25600.0,0.0030021947443930794
25698.0,25613.0,0.005835893130103821
25708.0,25611.0,0.008453756582314443
25718.0,25616.0,0.010725179917236233
25728.0,25628.0,0.012517192613887394
25738.0,25618.0,0.01370290061070725
25748.0,25615.0,0.014169926379692579
25758.0,25620.0,0.013828171690715674
25768.0,25626.0,0.012616791194470098
25777.0,25617.0,0.010510326037290177
25787.0,25627.0,0.007523544760396714
25797.0,25618.0,0.003714360091393243
25807.0,25621.0,-0.0008156612317237308
25818.0,25617.0,-0.005923492550288291
25828.0,25615.0,-0.011429664745143408
25838.0,25607.0,-0.01712602748426513
25848.0,25602.0,-0.02278590943046075
25858.0,25601.0,-0.028175971991648258
25868.0,25598.0,-0.033068800861502295
25878.0,25590.0,-0.03725532182753292
25888.0,25594.0,-0.04055627707023759
25897.0,25592.0,-0.042832071358141266
25907.0,25584.0,-0.043990419849950425
25917.0,25588.0,-0.04399138348900215
25928.0,25591.0,-0.042849396840383774
25938.0,25591.0,-0.040631992189186644
25948.0,25593.0,-0.03745529564049454
25958.0,25600.0,-0.033476722145014015
25968.0,25599.0,-0.02888545247097835
25978.0,25600.0,-0.023891370463978785
25988.0,25608.0,-0.01871314736330175
25998.0,25611.0,-0.013566089507155899
26007.0,25614.0,-0.00865043991103813
26017.0,25618.0,-0.004141001052723185
26027.0,25608.0,-0.00017890852043920516
26038.0,25611.0,0.0031340101482986516
26048.0,25617.0,0.005738426053790503
26058.0,25618.0,0.007618650618997752
26068.0,25622.0,0.008801827889882749
26078.0,25617.0,0.009354836684187738
26088.0,25610.0,0.009378563236596431
26098.0,25612.0,0.008999701664366833
26108.0,25599.0,0.008360862793346724
26118.0,25600.0,0.007610177939051818
26127.0,25608.0,0.006891687075711476
26137.0,25603.0,0.006337518640277281
26147.0,25602.0,0.006062225931157905
26158.0,25604.0,0.006159152898782638
26168.0,25608.0,0.006698656712140423
26178.0,25608.0,0.007727991611358127
26188.0,25611.0,0.009272402684206826
26198.0,25600.0,0.011336821667280209
26208.0,25609.0,0.013907776353036127
26218.0,25612.0,0.016955498274718078
26228.0,25613.0,0.02043624616240737
26237.0,25614.0,0.02429450818930355
26247.0,25613.0,0.02846454064914321
26257.0,25610.0,0.03287092933694438
26268.0,25604.0,0.037428305729957353
26278.0,25610.0,0.04204079447099409
26288.0,25617.0,0.04660198118895521
26298.0,25618.0,0.05099587510425696
26308.0,25609.0,0.05509870994675778
26318.0,25609.0,0.05878123025093942
26328.0,25613.0,0.06191157692768878
26338.0,25605.0,0.06435932134156729
26347.0,25622.0,0.06600106584533014
26357.0,25617.0,0.06672750967463027
26367.0,25614.0,0.06645129967251785
26378.0,25602.0,0.06511474748550786
26388.0,25612.0,0.06269691881212676
26398.0,25619.0,0.05922012317306327
26408.0,25620.0,0.05475552465024242
26418.0,25618.0,0.049426651527052765
26428.0,25605.0,0.043409137682941905
26438.0,25597.0,0.03692564190525119
26448.0,25583.0,0.030236115941454013
26458.0,25583.0,0.023624688643972283
26467.0,25577.0,0.0173849088790656
26477.0,25575.0,0.01180486909067745
26487.0,25563.0,0.00715320801281175
26498.0,25572.0,0.0036666726093566512
26508.0,25568.0,0.001539803627224483
26518.0,25576.0,0.0009169833191520946
26528.0,25565.0,0.0018865462738727962
26538.0,25569.0,0.0044764177553873255
26548.0,25562.0,0.00865104593796234
26558.0,25563.0,0.014309897758534975
26568.0,25570.0,0.021288074855393177
26577.0,25577.0,0.02935948521905992
26587.0,25581.0,0.038242482977500165
26597.0,25577.0,0.047607310940581196
26608.0,25574.0,0.05708461227030234
26618.0,25579.0,0.06627482964188225
26628.0,25584.0,0.07475888590627168
26638.0,25590.0,0.08211050333724594
26648.0,25579.0,0.08790998131157127
26658.0,25577.0,0.0917589597459133
26668.0,25584.0,0.09329601525093924
26678.0,25576.0,0.0922132885950706
26687.0,25582.0,0.08827410613782281
26697.0,25574.0,0.08133100126901001
26707.0,25575.0,0.0713431733754731
26718.0,25573.0,0.05839224971250397
26728.0,25573.0,0.042695032027164584
26738.0,25567.0,0.024611644702494127
26748.0,25566.0,0.004647292429024685
26758.0,25557.0,-0.016554127844603587
26768.0,25528.0,-0.038225928735857145
26778.0,25532.0,-0.05950452893199701
26788.0,25509.0,-0.07946460000883351
26798.0,25492.0,-0.09716178913436284
26807.0,25485.0,-0.11168082922740608
26817.0,25463.0,-0.12218632305576257
26827.0,25444.0,-0.12797293024538184
26838.0,25438.0,-0.12851119019320623
26848.0,25426.0,-0.12348480323723478
26858.0,25440.0,-0.11281530220735485
26868.0,25449.0,-0.09667105206050551
26878.0,25471.0,-0.07545926342583556
26888.0,25501.0,-0.04980178050886925
26898.0,25537.0,-0.020497442854615307
26908.0,25557.0,0.01152437190075486
26917.0,25565.0,0.04525329161343583
26927.0,25568.0,0.07964520139906289
26937.0,25572.0,0.11366377400431514
26948.0,25574.0,0.14631532641636222
26958.0,25580.0,0.1766778630855599
26968.0,25597.0,0.2039259160700369
26978.0,25618.0,0.22735254851024805
26988.0,25625.0,0.24638882232258916
26998.0,25633.0,0.26061977073803605
27008.0,25647.0,0.2697953126614598
27018.0,25642.0,0.2738346832453861
27028.0,25632.0,0.2728233686506435
27037.0,25625.0,0.26700225311418224
27047.0,25611.0,0.2567498293853304
27058.0,25597.0,0.24255937713717243
27068.0,25596.0,0.225013503866805
27078.0,25602.0,0.20475826157268318
27088.0,25597.0,0.18247807616017198
27098.0,25580.0,0.15887132221423975
27108.0,25554.0,0.13462572134809114
27118.0,25543.0,0.11039355147294562
27128.0,25535.0,0.08676809259195402
27138.0,25528.0,0.06426333907432169
27147.0,25521.0,0.04329838645592533
27157.0,25507.0,0.024186918801879065
27167.0,25498.0,0.007131752371959692
27178.0,25501.0,-0.007775535376090416
27188.0,25493.0,-0.020549832853703487
27198.0,25490.0,-0.03130290551430817
27208.0,25490.0,-0.04022978742946202
27218.0,25480.0,-0.047592093181105674
27228.0,25483.0,-0.053699090453442413
27238.0,25482.0,-0.05888724819760133
27248.0,25487.0,-0.06349900023356828
27257.0,25493.0,-0.06786177501045727
27267.0,25487.0,-0.07226878168885814
27277.0,25469.0,-0.0769631361870515
27288.0,25480.0,-0.08212625585723514
27298.0,25477.0,-0.08787044391230182
27308.0,25490.0,-0.09423529458779166
27318.0,25485.0,-0.10118824205467795
27328.0,25472.0,-0.10863025945234507
27338.0,25454.0,-0.11640738220754547
27348.0,25449.0,-0.1243273267705182
27358.0,25445.0,-0.1321789610163126
27367.0,25436.0,-0.13975184429574614
27377.0,25443.0,-0.14685354398441225
27387.0,25437.0,-0.15332325081457313
27398.0,25438.0,-0.15904095364668197
27408.0,25447.0,-0.16393202659401993
27418.0,25449.0,-0.16796757004688143
27428.0,25450.0,-0.1711613674650755
27438.0,25451.0,-0.17356470941465932
27448.0,25441.0,-0.17526023666015703
27458.0,25453.0,-0.1763554233186577
27468.0,25450.0,-0.17697583902123848
27478.0,25453.0,-0.17725828919719794
27487.0,25457.0,-0.17734419331679374
27497.0,25456.0,-0.1773737009545381
27507.0,25450.0,-0.17748094863463681
27518.0,25469.0,-0.17779062978889013
27528.0,25454.0,-0.17841588914966583
27538.0,25461.0,-0.17945761753016945
27548.0,25464.0,-0.18100523545855096
27558.0,25454.0,-0.1831388337826688
27568.0,25445.0,-0.18593227575781407
27578.0,25446.0,-0.18945644574624335
27588.0,25448.0,-0.1937813039008057
27597.0,25446.0,-0.19897542621186196
27607.0,25456.0,-0.20510243288089455
27617.0,25443.0,-0.21221453029756734
27628.0,25448.0,-0.22034383436071392
27638.0,25451.0,-0.22949217486760753
27648.0,25457.0,-0.2396200965790382
27658.0,25462.0,-0.25063620950948345
27668.0,25454.0,-0.26238867070255645
27678.0,25445.0,-0.27466070049500757
27688.0,25446.0,-0.28717135086298246
27698.0,25441.0,-0.2995817526296139
27707.0,25433.0,-0.3115064911428864
27717.0,25413.0,-0.32252953339175394
27727.0,25409.0,-0.33222358600322693
27738.0,25394.0,-0.34017084102056505
27748.0,25400.0,-0.3459824579838562
27758.0,25420.0,-0.34931440418254334
27768.0,25424.0,-0.3498785378949397
27778.0,25427.0,-0.34744957249010067
27788.0,25421.0,-0.3418695988974748
27798.0,25434.0,-0.33305144704232303
27808.0,25437.0,-0.32098112703085563
27818.0,25440.0,-0.30571905126917015
27827.0,25458.0,-0.28739975610715707
27837.0,25459.0,-0.2662299296020402
27847.0,25458.0,-0.24248454929489455
27858.0,25474.0,-0.21650069144388645
27868.0,25487.0,-0.18866811903879152
27878.0,25514.0,-0.1594157801691817
27888.0,25545.0,-0.12919432513031529
27898.0,25564.0,-0.09845625591493767
27908.0,25570.0,-0.06763650214035247
27918.0,25579.0,-0.03713623962555462
27928.0,25589.0,-0.007311500167789399
27937.0,25591.0,0.021533492526358694
27947.0,25623.0,0.0491492807906095
27957.0,25630.0,0.07534145619854359
27968.0,25642.0,0.09996861588765535
27978.0,25633.0,0.12293777972496464
27988.0,25650.0,0.14419745509875176
27998.0,25654.0,0.16372951966863514
28008.0,25663.0,0.1815415148244702
28018.0,25688.0,0.19766046532691753
28028.0,25705.0,0.2121283762648073
28038.0,25711.0,0.224998398416101
28048.0,25707.0,0.23632983815418274
28057.0,25690.0,0.24618060298023234
28067.0,25673.0,0.25459745159072245
28078.0,25666.0,0.2616066441646834
28088.0,25692.0,0.26720895289513213
28098.0,25695.0,0.2713824061250585
28108.0,25722.0,0.27409368677594825
28118.0,25737.0,0.2753162481158733
28128.0,25754.0,0.2750512658626132
28138.0,25749.0,0.27334685561325767
28148.0,25733.0,0.27031156614091684
28158.0,25710.0,0.26611980243609445
28167.0,25702.0,0.26100895741076796
28177.0,25683.0,0.25526999915964843
28188.0,25683.0,0.24923446851770542
28198.0,25688.0,0.24326091758583404
28208.0,25704.0,0.23772279125543533
28218.0,25704.0,0.2329979682365089
28228.0,25713.0,0.2294584432485555
28238.0,25700.0,0.2274578915824141
28248.0,25673.0,0.22731548192637865
28258.0,25677.0,0.22929605967502764
28268.0,25669.0,0.2335888358908357
28278.0,25673.0,0.2402876553075251
28287.0,25668.0,0.24937542399282178
28297.0,25670.0,0.2607143753732619
28308.0,25655.0,0.274043409115428
28318.0,25670.0,0.2889837555565058
28328.0,25698.0,0.3050541228816143
28338.0,25727.0,0.32169531958508063
28348.0,25737.0,0.33830191234452883
28358.0,25741.0,0.3542562893975301
28368.0,25737.0,0.3689602646302927
28378.0,25724.0,0.3818610505661711
28388.0,25741.0,0.392470678827986
28397.0,25736.0,0.40037940729924104
28407.0,25736.0,0.40526379970308485
28418.0,25721.0,0.40688971175243893
28428.0,25720.0,0.4051104965255238
28438.0,25698.0,0.39986143465932905
28448.0,25680.0,0.39115209019697683
28458.0,25667.0,0.3790588357084993
28468.0,25671.0,0.363720090301178
28478.0,25678.0,0.34533620477626115
28488.0,25701.0,0.3241739642255573
28498.0,25690.0,0.3005729873615264
28508.0,25679.0,0.27494930807230783
28517.0,25646.0,0.24779143162609893
28528.0,25610.0,0.21964631334841905
28538.0,25570.0,0.1910959092635824
28548.0,25551.0,0.16272783741449878
28558.0,25536.0,0.13510521565890293
28568.0,25533.0,0.10874034595871336
28578.0,25519.0,0.08407501541746674
28588.0,25513.0,0.06146804123933991
28598.0,25495.0,0.041189361922709444
28608.0,25479.0,0.02341968106123441
28618.0,25483.0,0.008254984202893903
28627.0,25489.0,-0.004284593929428977
28638.0,25478.0,-0.014242723666194024
28648.0,25475.0,-0.02171385383079159
28658.0,25471.0,-0.026831660809125746
28668.0,25457.0,-0.029760734464903738
28678.0,25439.0,-0.030692273867885294
28688.0,25432.0,-0.029843478132493606
28698.0,25413.0,-0.027459157405335045
28708.0,25399.0,-0.02381325379319534
28718.0,25408.0,-0.019207657540430644
28728.0,25421.0,-0.013966081511215787
28737.0,25426.0,-0.008422195890838471
28748.0,25444.0,-0.0029033526488317467
28758.0,25427.0,0.00228718867325776
28768.0,25425.0,0.006886405854759234
28778.0,25427.0,0.010683917917897004
28788.0,25431.0,0.013529821070491577
28798.0,25428.0,0.015337594377167764
28808.0,25407.0,0.01608150314937224
28818.0,25387.0,0.0157882613481505
28828.0,25382.0,0.014524091891854659
28838.0,25379.0,0.012379739821417657
28847.0,25372.0,0.009456177552116552
28858.0,25373.0,0.00585274635674762
28868.0,25361.0,0.0016583677942074763
28878.0,25365.0,-0.0030541510272156618
28888.0,25366.0,-0.008230995314871198
28898.0,25362.0,-0.013838073019030584
28908.0,25349.0,-0.019860736973786763
28918.0,25330.0,-0.026303613312618244
28928.0,25334.0,-0.033190839330031065
28938.0,25322.0,-0.040566127302624495
28947.0,25314.0,-0.04849196195922299
28958.0,25307.0,-0.057047682266019244
28968.0,25287.0,-0.06632640824599048
28978.0,25285.0,-0.07643057373182499
28988.0,25274.0,-0.08746558389478525
28998.0,25275.0,-0.09953122530210744
29008.0,25270.0,-0.11271105184379722
29018.0,25264.0,-0.1270607696157753
29028.0,25257.0,-0.14259720448655536
29038.0,25247.0,-0.15928953304852278
29047.0,25245.0,-0.17705420566864158
29058.0,25229.0,-0.19575468782882854
29068.0,25200.0,-0.21520681494396207
29078.0,25175.0,-0.235189736136233
29088.0,25145.0,-0.25546087745197493
29098.0,25133.0,-0.2757717678157444
29108.0,25134.0,-0.2958810124429753
29118.0,25130.0,-0.3155616816838386
29128.0,25139.0,-0.33460249673593706
29138.0,25152.0,-0.3528044509858207
29147.0,25143.0,-0.36997620363922956
29158.0,25107.0,-0.3859322636627122
29168.0,25071.0,-0.4004968150951047
29178.0,25051.0,-0.41351289054980067
29188.0,25042.0,-0.42485332805491377
29198.0,25053.0,-0.4344288660936529
29208.0,25067.0,-0.4421903362632332
29218.0,25065.0,-0.44812486829079984
29228.0,25056.0,-0.4522484484197006
29238.0,25058.0,-0.4545977797144485
29248.0,25047.0,-0.45522341693593016
29258.0,25046.0,-0.4541848951352556
29268.0,25038.0,-0.4515477871882968
29278.0,25034.0,-0.447382165665449
29288.0,25037.0,-0.441761639789305
29298.0,25042.0,-0.4347621052426344
29308.0,25051.0,-0.4264597389696225
29318.0,25062.0,-0.41692851586350793
29328.0,25066.0,-0.40623827729400913
29338.0,25061.0,-0.39445473273054027
29348.0,25058.0,-0.38164238813998846
29358.0,25064.0,-0.36787033585765927
29368.0,25063.0,-0.35321981287950216
29378.0,25062.0,-0.33779205257297557
29388.0,25057.0,-0.3217149667264195
29398.0,25055.0,-0.30514702801737664
29408.0,25075.0,-0.2882764553300194
29418.0,25084.0,-0.2713141173415033
29428.0,25095.0,-0.2544797877819326
29438.0,25114.0,-0.23798287128149223
29448.0,25122.0,-0.22199969097823327
29458.0,25141.0,-0.20664988379482918
29468.0,25158.0,-0.19197470700488276
29478.0,25173.0,-0.17792025204338197
29487.0,25175.0,-0.16432863668413028
29498.0,25171.0,-0.1509398138442875
29508.0,25149.0,-0.1374052241678508
29518.0,25157.0,-0.12331226371715642
29528.0,25150.0,-0.10821639217799657
29538.0,25156.0,-0.09167674915208301
29548.0,25177.0,-0.07329152293114059
29558.0,25172.0,-0.05273037165588635
29568.0,25171.0,-0.02976220657866879
29578.0,25197.0,-0.004276981742145068
29588.0,25203.0,0.023700021066759464
29598.0,25220.0,0.05400257821538084
29608.0,25240.0,0.08632682026367716
29618.0,25257.0,0.12024291838126214
29628.0,25274.0,0.15521416275244707
29638.0,25299.0,0.1906220323686099
29648.0,25322.0,0.22579552977966674
29658.0,25335.0,0.2600427135088964
29668.0,25365.0,0.2926820683410546
29678.0,25360.0,0.32307138486304365
29688.0,25368.0,0.35063232913975223
29698.0,25384.0,0.37486989409867777
29708.0,25396.0,0.3953869459566535
29718.0,25401.0,0.41189428841561415
29728.0,25413.0,0.424216197515171
29738.0,25402.0,0.43229113989061624
29748.0,25406.0,0.43616773457372093
29758.0,25405.0,0.43599667599854214
29768.0,25404.0,0.4320198180656964
29778.0,25404.0,0.4245575741563958
29788.0,25399.0,0.41399540061092804
29798.0,25395.0,0.40076980950848845
29808.0,25396.0,0.38535420338265725
29818.0,25398.0,0.368244648410738
29827.0,25389.0,0.34994531957313985
29838.0,25377.0,0.3309529963888204
29848.0,25352.0,0.3117402454155427
29858.0,25351.0,0.29273794745320053
29868.0,25332.0,0.27431892186224416
29878.0,25330.0,0.256784755917909
29888.0,25329.0,0.24035751041321832
29898.0,25328.0,0.22517714695658167
29908.0,25325.0,0.21130456015720384
29918.0,25331.0,0.1987292684050778
29928.0,25322.0,0.18738035941673353
29938.0,25323.0,0.17713917112186456
29948.0,25314.0,0.16785237869865602
29958.0,25304.0,0.15934464614063334
29968.0,25299.0,0.15143064711482881
29978.0,25304.0,0.14392681835932508
29988.0,25307.0,0.13666327230537023
29998.0,25308.0,0.12949566656011666
30008.0,25312.0,0.12231598622948331
30018.0,25309.0,0.11506077027493937
30028.0,25308.0,0.10771540744906472
30038.0,25300.0,0.10031355246461347
30048.0,25288.0,0.09293138171329775
30058.0,25278.0,0.08567728991662205
30068.0,25271.0,0.07867856212788774
30078.0,25271.0,0.0720671602096964
30088.0,25269.0,0.06596669669495263
30098.0,25273.0,0.06048200469275085
30108.0,25273.0,0.05569186007210537
30118.0,25277.0,0.0516447126001645
30128.0,25271.0,0.048356866888537936
30138.0,25268.0,0.045812495469314575
30148.0,25276.0,0.04396513902976389
30158.0,25278.0,0.04274058358414116
30167.0,25276.0,0.04204081424562879
30178.0,25277.0,0.04174839182330806
30188.0,25271.0,0.04173063596087216
30198.0,25266.0,0.041843450134604734
30208.0,25268.0,0.041935146573978795
30218.0,25271.0,0.041850920815824304
30228.0,25278.0,0.041438430336941535
30238.0,25280.0,0.04055427710035619
30248.0,25277.0,0.03907053207817194
30258.0,25276.0,0.03688024783671867
30268.0,25273.0,0.0339012442953831
30278.0,25268.0,0.030077973473148528
30288.0,25271.0,0.025381630582787962
30298.0,25262.0,0.019808801292488267
30308.0,25247.0,0.013378966984791657
30318.0,25247.0,0.006131442120640665
30328.0,25249.0,-0.001877253429907438
30338.0,25254.0,-0.010574664103339168
30348.0,25257.0,-0.01987231832895879
30358.0,25245.0,-0.0296653998188862
30368.0,25231.0,-0.03983358390644048
30378.0,25230.0,-0.050243725235995684
30388.0,25221.0,-0.06075400433192203
30398.0,25217.0,-0.07121865052441904
30408.0,25218.0,-0.08149258440963073
30418.0,25202.0,-0.09143573088460678
30428.0,25197.0,-0.10091693319940497
30438.0,25199.0,-0.1098172386189285
30448.0,25202.0,-0.1180321872081819
30458.0,25194.0,-0.12547313072777752
30468.0,25185.0,-0.1320682100420666
30478.0,25167.0,-0.13776353943716346
30488.0,25184.0,-0.1425243192786663
30498.0,25173.0,-0.14633501705945517
30508.0,25179.0,-0.1491981535628394
30518.0,25173.0,-0.1511320562522583
30528.0,25167.0,-0.15216825566745426
30538.0,25165.0,-0.15234889972387103
30548.0,25167.0,-0.1517241079006452
30558.0,25174.0,-0.15034903163635352
30568.0,25174.0,-0.14828074273436023
30578.0,25171.0,-0.14557562628917017
30588.0,25161.0,-0.14228807475109168
30598.0,25163.0,-0.13847071440400185
30608.0,25161.0,-0.13417560470168546
30618.0,25167.0,-0.12945552606278898
30628.0,25172.0,-0.12436480487982907
30638.0,25167.0,-0.11895973244892183
30648.0,25164.0,-0.11329897956666182
30658.0,25166.0,-0.10744419842734214
30668.0,25163.0,-0.1014605090273543
30678.0,25164.0,-0.09541631755146279
30688.0,25175.0,-0.08938203976745634
30698.0,25169.0,-0.0834276600020095
30708.0,25170.0,-0.0776194722859136
30718.0,25173.0,-0.07201649032640686
30728.0,25182.0,-0.06666685537062622
30738.0,25183.0,-0.06160462493950387
30748.0,25180.0,-0.05684770219755565
30758.0,25172.0,-0.05239775751538033
30768.0,25166.0,-0.048242398702895505
30778.0,25169.0,-0.04435893668653761
30788.0,25168.0,-0.04071858379442984
30798.0,25170.0,-0.03729012971833062
30808.0,25167.0,-0.03404271069737461
30818.0,25167.0,-0.030947675990794045
30828.0,25175.0,-0.02797964980779912
30838.0,25162.0,-0.025116951676862762
30848.0,25169.0,-0.02234163484852458
30858.0,25175.0,-0.019639361078003882
30868.0,25157.0,-0.016999280091710874
30878.0,25150.0,-0.014414041840514001
30888.0,25156.0,-0.01187959883974513
30898.0,25158.0,-0.009393849358351428
30908.0,25166.0,-0.006953430981662225
30918.0,25169.0,-0.004549055738386497
30928.0,25166.0,-0.0021606853242764155
30938.0,25164.0,0.0002459849272530687
30948.0,25163.0,0.0027207255561390543
30958.0,25159.0,0.005327317626196626
30968.0,25153.0,0.008139610456883505
30978.0,25153.0,0.01123559947677939
30988.0,25145.0,0.014690317278797453
30998.0,25149.0,0.018568501865942996
31008.0,25136.0,0.022918019707029204
31018.0,25150.0,0.02776495586265463
31028.0,25153.0,0.03311106933199029
31038.0,25159.0,0.03893371866945773
31048.0,25152.0,0.04518757635530565
31058.0,25148.0,0.05180718627892002
31068.0,25153.0,0.05870995809038489
31079.0,25159.0,0.065799846953456
31088.0,25162.0,0.07297195356466497
31098.0,25161.0,0.08011771805527293
31108.0,25150.0,0.0871300672939569
31118.0,25159.0,0.09390824430335881
31128.0,25166.0,0.10036262894728055
31138.0,25176.0,0.10641979412354248
31148.0,25178.0,0.11202720464800182
31158.0,25162.0,0.1171562544030016
31168.0,25169.0,0.12180262410587236
31178.0,25168.0,0.12598398810463513
31188.0,25163.0,0.12973584011782216
31198.0,25167.0,0.13310619989521713
31208.0,25162.0,0.13614975098359097
31218.0,25154.0,0.1389219519467409
31228.0,25166.0,0.1414737825612758
31238.0,25158.0,0.14384782231365498
31248.0,25169.0,0.14607607171399048
31258.0,25174.0,0.14817937676376491
31268.0,25163.0,0.15016782709647075
31278.0,25159.0,0.15204138966432074
31288.0,25167.0,0.15379051707987806
31298.0,25164.0,0.15539707458171842
31309.0,25169.0,0.15683590568168057
31318.0,25173.0,0.15807684209274075
31328.0,25170.0,0.15908658185411248
31338.0,25160.0,0.15982982893451378
31348.0,25157.0,0.16026949203199659
31358.0,25163.0,0.16036645849058748
31368.0,25163.0,0.160079825967767
31378.0,25169.0,0.15936805780502505
31388.0,25159.0,0.1581908131765099
31398.0,25155.0,0.15651095355371805
31408.0,25157.0,0.15429661587666174
31419.0,25166.0,0.1515236986041601
31428.0,25160.0,0.14817894457771028
31438.0,25158.0,0.14426318626371049
31448.0,25146.0,0.13979411142102058
31458.0,25161.0,0.13480837809716106
31468.0,25165.0,0.129363266261745
31478.0,25161.0,0.12353759716748497
31488.0,25156.0,0.11743090616134316
31498.0,25146.0,0.11115990094470408
31508.0,25147.0,0.10485214777592937
31518.0,25137.0,0.09863782286723735
31528.0,25136.0,0.09264071352271847
31538.0,25137.0,0.08696961773595052
31548.0,25135.0,0.08171108006040513
31558.0,25133.0,0.07692404812726848
31568.0,25137.0,0.07263669828138142
31578.0,25140.0,0.06884547500107398
31588.0,25142.0,0.06551614806854895
31598.0,25144.0,0.0625863687546201
31608.0,25136.0,0.059969068629855425
31618.0,25137.0,0.05755629564917383
31628.0,25143.0,0.05522356435552027
31638.0,25143.0,0.05283503451483718
31649.0,25138.0,0.05024960214725161
31658.0,25149.0,0.047327704207821224
31668.0,25149.0,0.04393859100951695
31678.0,25150.0,0.039967705601674564
31688.0,25158.0,0.03532354091677445
31698.0,25153.0,0.02994322142517134
31708.0,25154.0,0.023796143394972824
31718.0,25160.0,0.016885222924650174
31728.0,25154.0,0.009245539332749311
31738.0,25144.0,0.0009403303924760844
31748.0,25141.0,-0.007945354132665148
31759.0,25143.0,-0.01731238759157851
31768.0,25140.0,-0.02705536467928981
31778.0,25149.0,-0.0370694601194543
31788.0,25131.0,-0.04725597124882664
31798.0,25140.0,-0.057526475544460165
31808.0,25144.0,-0.06780541909719437
31818.0,25148.0,-0.07803097482356552
31828.0,25156.0,-0.08815458609370642
31838.0,25135.0,-0.09814023611658408
31848.0,25139.0,-0.10796434669276339
31858.0,25143.0,-0.11761631976899567
31868.0,25141.0,-0.12709904682293022
31878.0,25142.0,-0.13642888965258734
31888.0,25144.0,-0.14563514507482386
31898.0,25146.0,-0.15475919109220504
31908.0,25135.0,-0.16385347316720375
31918.0,25143.0,-0.1729803404117705
31928.0,25138.0,-0.18221045153721346
31938.0,25144.0,-0.19162033469177467
31948.0,25149.0,-0.20128892890898298
31958.0,25140.0,-0.2112933385282038
31968.0,25143.0,-0.2217042265154429
31978.0,25145.0,-0.23258109580661013
31989.0,25149.0,-0.2439674802083202
31998.0,25150.0,-0.25588622492719365
32008.0,25145.0,-0.26833540308396486
32018.0,25142.0,-0.28128546002197286
32028.0,25146.0,-0.29467781017694006
32038.0,25147.0,-0.30842477614219027
32048.0,25142.0,-0.32241082369499097
32058.0,25149.0,-0.33649529347265056
32068.0,25135.0,-0.35051686084616485
32078.0,25130.0,-0.3642996858325627
32088.0,25132.0,-0.3776607046243811
32099.0,25126.0,-0.3904170288552444
32108.0,25137.0,-0.40239241305141676
32118.0,25139.0,-0.41342227964357964
32128.0,25129.0,-0.42335745118091106
32138.0,25136.0,-0.43206703180296513
32148.0,25144.0,-0.4394406430425327
32158.0,25146.0,-0.4453900232512961
32168.0,25148.0,-0.44985029559235556
32178.0,25144.0,-0.4527814637792876
32188.0,25145.0,-0.45417034493304964
32198.0,25159.0,-0.4540325139534048
32209.0,25162.0,-0.45241361336484714
32219.0,25165.0,-0.4493897675508421
32228.0,25177.0,-0.44506727864526174
32238.0,25174.0,-0.4395818019720585
32248.0,25169.0,-0.43309691520961024
32258.0,25186.0,-0.42580153477709515
32268.0,25195.0,-0.41790523760568676
32278.0,25202.0,-0.40963081174115584
32288.0,25220.0,-0.401204229625109
32298.0,25226.0,-0.39284296582357564
32308.0,25228.0,-0.38474387115231545
32318.0,25244.0,-0.3770717466521953
32329.0,25245.0,-0.36994943519408363
32338.0,25261.0,-0.3634500140945359
32348.0,25255.0,-0.35759168562038235
32358.0,25260.0,-0.3523358732071066
32368.0,25268.0,-0.34758859937912856
32378.0,25276.0,-0.34320478276903765
32388.0,25279.0,-0.3389951128034209
32398.0,25277.0,-0.33473545472231264
32408.0,25275.0,-0.3301786631356341
32418.0,25277.0,-0.3250680899770577
32428.0,25289.0,-0.31915149838248336
32439.0,25290.0,-0.31219410614170773
32448.0,25302.0,-0.3039900553630412
32458.0,25302.0,-0.2943721916013649
32468.0,25292.0,-0.2832201729362034
32478.0,25309.0,-0.27046652038629404
32488.0,25316.0,-0.2560996693417349
32498.0,25327.0,-0.24016316250668931
32508.0,25334.0,-0.22275092913431754
32518.0,25350.0,-0.2039993197718254
32528.0,25352.0,-0.18407680985639643
32538.0,25362.0,-0.16317228280747462
32549.0,25373.0,-0.14148265095006773
32559.0,25389.0,-0.11920038492107518
32568.0,25397.0,-0.09650161876586509
32578.0,25392.0,-0.07353576048324928
32588.0,25403.0,-0.05041734450581538
32598.0,25418.0,-0.027220136618530698
32608.0,25419.0,-0.003973062853923184
32618.0,25435.0,0.019342187978856937
32628.0,25444.0,0.04279160726162971
32638.0,25446.0,0.06648691897984939
32648.0,25444.0,0.09058090835973433
32658.0,25460.0,0.11526015514810332
32669.0,25466.0,0.14073586861177134
32679.0,25481.0,0.16723353257176626
32688.0,25484.0,0.19498153495424483
32698.0,25486.0,0.22419860927155305
32708.0,25488.0,0.2550802122873958
32718.0,25501.0,0.2877846768849451
32728.0,25516.0,0.32242043817729865
32738.0,25522.0,0.35903535611573967
32748.0,25541.0,0.39760846176440373
32758.0,25543.0,0.43804400296516355
32768.0,25543.0,0.4801677162898554
32778.0,25553.0,0.5237257670986741
32788.0,25582.0,0.5683874405267844
32799.0,25586.0,0.6137526028973614
32809.0,25610.0,0.6593639322336939
32818.0,25622.0,0.7047228633930553
32828.0,25637.0,0.7493077705068699
32838.0,25634.0,0.7925929104241539
32848.0,25651.0,0.8340669827693513
32858.0,25662.0,0.8732507434453264
32868.0,25667.0,0.9097133624482924
32878.0,25683.0,0.9430869049396521
32888.0,25692.0,0.9730778783928743
32898.0,25700.0,0.9994744645773519
32908.0,25679.0,1.0221479065946872
32918.0,25674.0,1.0410470562796899
32928.0,25664.0,1.056186511593156
32939.0,25649.0,1.067630216781021
32949.0,25645.0,1.0754729720892282
32958.0,25647.0,1.079822047720811
32968.0,25627.0,1.0807803334795059
32978.0,25596.0,1.0784316230039537
32988.0,25577.0,1.0728286341303972
32998.0,25568.0,1.0639853053242514
33008.0,25548.0,1.0518754065920857
33018.0,25537.0,1.03643867052215
33028.0,25531.0,1.0175941947601568
33038.0,25511.0,0.995259592019601
33048.0,25492.0,0.9693733928960705
33058.0,25454.0,0.9399178160099907
33068.0,25426.0,0.9069395568559807
33079.0,25401.0,0.8705673521722347
33089.0,25383.0,0.8310258120920773
33098.0,25352.0,0.788644775751482
33108.0,25314.0,0.7438627103967306
33118.0,25274.0,0.6972225383453401
33128.0,25226.0,0.6493591930653951
33138.0,25188.0,0.6009796239844714
33148.0,25151.0,0.5528370937045485
33158.0,25117.0,0.5057019852588586
33168.0,25079.0,0.4603310067963067
33178.0,25055.0,0.4174361082180866
33188.0,25003.0,0.37765402188364966
33198.0,24972.0,0.3415173108670095
33208.0,24940.0,0.30942823263992586
33219.0,24911.0,0.28163719147127975
33229.0,24895.0,0.2582274002491797
33238.0,24867.0,0.23910658804625465
33248.0,24850.0,0.22400570738100492
33258.0,24827.0,0.2124840363157178
33268.0,24800.0,0.2039399405708665
33278.0,24777.0,0.19762677547286348
33288.0,24767.0,0.19267378461043683
33298.0,24751.0,0.18811195434047423
33308.0,24734.0,0.18290425526417992
33318.0,24708.0,0.17597896649616282
33328.0,24689.0,0.16626458395798843
33338.0,24669.0,0.152725171613043
33348.0,24657.0,0.13439524703472064
33359.0,24610.0,0.11041302920937542
33369.0,24586.0,0.08005064715507315
33378.0,24547.0,0.04274036044573606
33388.0,24498.0,-0.0019033352591630182
33398.0,24455.0,-0.05406525542712701
33408.0,24409.0,-0.11371386049418435
33418.0,24381.0,-0.1805873640266749
33428.0,24341.0,-0.2541812676288145
33438.0,24309.0,-0.33373847930374645
33448.0,24268.0,-0.4182447572312934
33458.0,24233.0,-0.506433197717476
33468.0,24182.0,-0.5968017394542608
33478.0,24123.0,-0.6876472279450431
33488.0,24047.0,-0.7771182285330828
33499.0,23975.0,-0.8632863063280318
33509.0,23904.0,-0.9442323850690487
33518.0,23832.0,-1.0181420664033578
33528.0,23754.0,-1.0834020610749993
33538.0,23690.0,-1.1386889121896067
33548.0,23637.0,-1.1830407528194695
33558.0,23580.0,-1.2159037547414226
33568.0,23528.0,-1.2371482480006175
33578.0,23474.0,-1.247054584177893
33588.0,23430.0,-1.2462733364596426
33598.0,23383.0,-1.2357666594704966
33608.0,23339.0,-1.2167378256631554
33618.0,23299.0,-1.1905552239200228
33628.0,23281.0,-1.1586761208724377
33639.0,23266.0,-1.1225744354366545
33649.0,23264.0,-1.0836757281473932
33658.0,23281.0,-1.0433016137638218
33668.0,23306.0,-1.0026249105419178
33678.0,23318.0,-0.9626360717831958
33688.0,23314.0,-0.9241208214299887
33698.0,23335.0,-0.8876484405376791
33708.0,23352.0,-0.8535698200949229
33718.0,23382.0,-0.822024194054884
33728.0,23408.0,-0.792953374235104
33738.0,23438.0,-0.7661223011717383
33748.0,23454.0,-0.7411447749926011
33758.0,23461.0,-0.7175133105329221
33768.0,23476.0,-0.6946321454749378
33779.0,23480.0,-0.6718524967118987
33789.0,23487.0,-0.6485091905297807
33798.0,23500.0,-0.6239577744226851
33808.0,23522.0,-0.5976111467822839
33818.0,23528.0,-0.5689746166307772
33828.0,23543.0,-0.5376781372820489
33838.0,23568.0,-0.5035042602438682
33848.0,23600.0,-0.46641014967092054
33858.0,23625.0,-0.42654180893349897
33868.0,23653.0,-0.3842385284421815
33878.0,23680.0,-0.34002557310045345
33888.0,23703.0,-0.29459363028164326
33898.0,23726.0,-0.24876490438910798
33908.0,23759.0,-0.20344774343257305
33919.0,23782.0,-0.15958355791010442
33929.0,23793.0,-0.11809096969754487
33938.0,23801.0,-0.07981228500401537
33948.0,23801.0,-0.04546637678827606
33958.0,23803.0,-0.015610331487048525
33968.0,23807.0,0.009389402725714438
33978.0,23822.0,0.02937653647464899
33988.0,23828.0,0.044415284466997
33998.0,23822.0,0.054791059386232584
34008.0,23818.0,0.06100067657784489
34018.0,23819.0,0.06373175655855717
34028.0,23817.0,0.063831928256187
34038.0,23784.0,0.0622690228225987
34048.0,23780.0,0.06008405785606487
34059.0,23775.0,0.05833994590148425
34069.0,23769.0,0.05806970969138555
34079.0,23768.0,0.060227655508729556
34088.0,23784.0,0.06564593360257255
34098.0,23789.0,0.07499785945444476
34108.0,23786.0,0.0887683225513673
34118.0,23816.0,0.10723090138516946
34128.0,23807.0,0.13043119868510583
34138.0,23805.0,0.15817610513580005
34148.0,23821.0,0.19002928002712655
34158.0,23823.0,0.22531415519734604
34168.0,23832.0,0.26312638087458645
34178.0,23850.0,0.3023574473371558
34188.0,23869.0,0.3417306816244209
34199.0,23900.0,0.37984993844190285
34209.0,23928.0,0.4152598520275426
34219.0,23946.0,0.4465148198896748
34228.0,23976.0,0.4722525766099866
34238.0,23992.0,0.49126760313400036
34248.0,23998.0,0.5025795283925557
34258.0,24009.0,0.5054919940572116
34268.0,24026.0,0.4996381790392777
34278.0,24018.0,0.4850098760761774
34288.0,24014.0,0.46196741294159654
34298.0,23990.0,0.43122846017297356
34308.0,23963.0,0.3938354005160161
34318.0,23933.0,0.3511031108671474
34328.0,23910.0,0.3045510571795232
34339.0,23891.0,0.2558249068951456
34349.0,23874.0,0.2066130459185364
34359.0,23835.0,0.15856275724983857
34368.0,23812.0,0.11320031565552854
34378.0,23788.0,0.0718594782988634
34388.0,23774.0,0.035623253690632024
34398.0,23775.0,0.005283424294794684
34408.0,23782.0,-0.018679202401707493
34418.0,23785.0,-0.03609304781088361
34428.0,23804.0,-0.047074005483660405
34438.0,23829.0,-0.05198691346186164
34448.0,23841.0,-0.05139481237831709
34458.0,23845.0,-0.04600146491364052
34468.0,23866.0,-0.03659256844205685
34479.0,23876.0,-0.02398001896735181
34489.0,23886.0,-0.008952399849547037
34499.0,23903.0,0.007765926880277801
34508.0,23912.0,0.02554546079356798
34518.0,23923.0,0.04387102364247349
34528.0,23923.0,0.062349889871919584
34538.0,23925.0,0.08070940847604234
34548.0,23951.0,0.09878607593780611
34558.0,23956.0,0.11650867614843612
34568.0,23974.0,0.13387781114482644
34578.0,23989.0,0.1509434257216686
34588.0,23985.0,0.16778156434118383
34598.0,23994.0,0.18447180187558307
34608.0,24005.0,0.20107741047350774
34619.0,24022.0,0.2176308068030914
34629.0,24045.0,0.2341264313554285
34639.0,24075.0,0.2505219093012272
34648.0,24102.0,0.26674666423783067
34658.0,24126.0,0.28271558856133716
34668.0,24143.0,0.2983443835045715
34678.0,24146.0,0.3135631669377073
34688.0,24169.0,0.32832590572129633
34698.0,24174.0,0.34261458899151953
34708.0,24182.0,0.3564380849672293
34718.0,24193.0,0.36982622029667
34728.0,24214.0,0.38282008715922555
34738.0,24220.0,0.3954597540346833
34748.0,24235.0,0.4077702862270293
34759.0,24256.0,0.4197467066687001
34769.0,24270.0,0.4313384145070711
34779.0,24288.0,0.4424333169459294
34788.0,24277.0,0.4528416865283916
34798.0,24274.0,0.4622802380811948
34808.0,24270.0,0.47035837124557617
34818.0,24264.0,0.4765701787066197
34828.0,24276.0,0.480296588817367
34838.0,24279.0,0.48082149131928
34848.0,24300.0,0.47736415551519645
34858.0,24325.0,0.46912808833033187
34868.0,24351.0,0.45536396262020323
34878.0,24375.0,0.4354416293430958
34888.0,24403.0,0.40892400308948673
34899.0,24432.0,0.3756341685131715
34909.0,24425.0,0.3357063941611683
34919.0,24398.0,0.2896122361135359
34929.0,24356.0,0.23815551984220737
34938.0,24304.0,0.18243476175514356
34948.0,24248.0,0.12377702154786488
34958.0,24207.0,0.06365156426665275
34968.0,24180.0,0.0035741468687016395
34978.0,24159.0,-0.0549871421976357
34988.0,24154.0,-0.1106955163748966
34998.0,24138.0,-0.16241263070375928
35008.0,24142.0,-0.20924618696762828
35018.0,24139.0,-0.250577235544604
35028.0,24139.0,-0.2860680606831252
35039.0,24143.0,-0.31565273264159877
35049.0,24136.0,-0.3395131002890344
35059.0,24146.0,-0.3580431641057949
35069.0,24155.0,-0.3718046689378255
35078.0,24153.0,-0.381476767466139
35088.0,24166.0,-0.3878027453924152
35098.0,24169.0,-0.3915367076531102
35108.0,24186.0,-0.3933928003880769
35118.0,24203.0,-0.39399939493420805
35128.0,24205.0,-0.39386080447569893
35138.0,24219.0,-0.39332915096981
35148.0,24222.0,-0.3925885058215492
35158.0,24218.0,-0.3916524343151467
35168.0,24218.0,-0.3903748588908379
35179.0,24213.0,-0.38847280011185115
35189.0,24219.0,-0.3855582933145365
35199.0,24221.0,-0.3811760653948558
35209.0,24231.0,-0.37484353236735496
35218.0,24247.0,-0.3660901403969136
35228.0,24242.0,-0.35449374575550413
35238.0,24254.0,-0.33971222338972096
35248.0,24261.0,-0.32150847002694005
35258.0,24284.0,-0.29976674816831494
35268.0,24306.0,-0.2744986686956038
35278.0,24341.0,-0.24583826669857528
35288.0,24378.0,-0.2140272224009482
35298.0,24400.0,-0.17939286497029702
35308.0,24425.0,-0.14232261224870763
35319.0,24447.0,-0.10323842348346048
35329.0,24492.0,-0.06257395097410073
35339.0,24513.0,-0.020756405877677984
35349.0,24532.0,0.02180488873198863
35358.0,24552.0,0.06472155243316507
35368.0,24566.0,0.10762029544941047
35378.0,24573.0,0.1501292623146513
35388.0,24594.0,0.19185902902142457
35398.0,24616.0,0.23238157700250475
35408.0,24637.0,0.2712106619826435
35418.0,24658.0,0.3077862755502999
35428.0,24684.0,0.3414649322671006
35438.0,24687.0,0.371516799526838
35448.0,24689.0,0.3971304202798411
35459.0,24703.0,0.4174261444702273
35469.0,24718.0,0.43147995261830613
35479.0,24728.0,0.43835906311451917
35489.0,24738.0,0.4371693366109259
35498.0,24757.0,0.42711287901184297
35508.0,24763.0,0.4075528826839117
35518.0,24769.0,0.3780814912677516
35528.0,24783.0,0.3385854248735624
35538.0,24799.0,0.28930335392564765
35548.0,24792.0,0.23086825785695947
35558.0,24784.0,0.16432745529105117
35568.0,24747.0,0.09113362390267578
35578.0,24688.0,0.013102542667138799
35588.0,24603.0,-0.0676626194044041
35599.0,24535.0,-0.1488753260783411
35609.0,24489.0,-0.2281876596314024
35619.0,24446.0,-0.3033170116357736
35629.0,24431.0,-0.3721647587731672
35638.0,24420.0,-0.4329172405235964
35648.0,24398.0,-0.48412316648791753
35658.0,24400.0,-0.5247448676062032
35668.0,24398.0,-0.554182948879691
35678.0,24410.0,-0.5722752667161753
35688.0,24421.0,-0.5792724649802142
35698.0,24447.0,-0.5757936356783413
35708.0,24461.0,-0.562766755596938
35718.0,24475.0,-0.5413591911339585
35728.0,24486.0,-0.5129034321735388
35739.0,24510.0,-0.478822227310592
35749.0,24547.0,-0.4405561576510685
35759.0,24570.0,-0.3994963445128504
35769.0,24598.0,-0.35692542133965127
35778.0,24620.0,-0.3139701212283382
35788.0,24632.0,-0.27156816861089556
35798.0,24644.0,-0.23045080131583778
35808.0,24662.0,-0.19114060699540947
35818.0,24685.0,-0.15396294686702003
35828.0,24694.0,-0.11906861008682382
35838.0,24698.0,-0.08646532113021657
35848.0,24707.0,-0.05605545224665432
35858.0,24711.0,-0.027676488428925627
35868.0,24718.0,-0.001140091864039834
35879.0,24746.0,0.023734398588136998
35889.0,24769.0,0.0470953230569287
35899.0,24780.0,0.06904448442188144
35909.0,24807.0,0.08963307739407762
35918.0,24830.0,0.10886633129048595
35928.0,24848.0,0.12671482008064042
35938.0,24860.0,0.14312983498809664
35948.0,24878.0,0.158059993927122
35958.0,24881.0,0.17146664275305792
35968.0,24895.0,0.18333626471142447
35978.0,24900.0,0.1936887617609856
35988.0,24907.0,0.20258102293004449
35998.0,24911.0,0.2101056189645808
36008.0,24905.0,0.21638487718611188
36019.0,24905.0,0.22156118175616787
36029.0,24921.0,0.2257850211755535
36039.0,24925.0,0.22920252368239355
36049.0,24926.0,0.23194364395966163
36058.0,24935.0,0.23411140826365823
36068.0,24929.0,0.23577243938735223
36078.0,24926.0,0.23694927910054286
36088.0,24927.0,0.23761547014859302
36098.0,24936.0,0.2376947291194768
36108.0,24946.0,0.2370653729316416
36118.0,24955.0,0.23557022966493185
36128.0,24958.0,0.2330310813005802
36138.0,24963.0,0.22926595380785544
36148.0,24959.0,0.22410751337108553
36159.0,24963.0,0.21742120351516112
36169.0,24970.0,0.2091221722238041
36179.0,24975.0,0.19919011755960647
36189.0,24973.0,0.18768084635781881
36198.0,24984.0,0.17473299498198133
36208.0,24974.0,0.1605683651488202
36218.0,24961.0,0.14548469685600038
36228.0,24943.0,0.12984058896535797
36238.0,24939.0,0.11403375405671974
36248.0,24924.0,0.0984751628339043
36258.0,24920.0,0.08356213501332907
36268.0,24917.0,0.0696531786680796
36278.0,24918.0,0.057046805396989496
36288.0,24909.0,0.04596580880547718
36299.0,24913.0,0.036547805609735425
36309.0,24925.0,0.02884239367116998
36319.0,24930.0,0.02281474352841065
36329.0,24932.0,0.01835454387758576
36338.0,24928.0,0.01528853599973342
36348.0,24940.0,0.013394997345646644
36358.0,24941.0,0.0124190784896593
36368.0,24935.0,0.012088159210404553
36378.0,24945.0,0.012126473280341471
36388.0,24948.0,0.012268525833338866
36398.0,24954.0,0.012271001275686113
36408.0,24953.0,0.011922673200834632
36418.0,24954.0,0.011051702639267844
36428.0,24958.0,0.00952996913647297
36439.0,24949.0,0.007274484704301767
36449.0,24960.0,0.004246247948843241
36459.0,24956.0,0.00044706155014947026
36469.0,24957.0,-0.004085203563017767
36479.0,24956.0,-0.009282568579437753
36488.0,24958.0,-0.015053822545662524
36498.0,24948.0,-0.02129189917730936
36508.0,24937.0,-0.027881159097906588
36518.0,24952.0,-0.03470360747406529
36528.0,24952.0,-0.041642885143806964
36538.0,24962.0,-0.04858551513839537
36548.0,24967.0,-0.05542009252412875
36558.0,24969.0,-0.06203596232083139
36568.0,24957.0,-0.06832304819518913
36579.0,24948.0,-0.07417388066762469
36589.0,24953.0,-0.07948769376695902
36599.0,24954.0,-0.08417546223080202
36609.0,24953.0,-0.0881647057547302
36619.0,24960.0,-0.09140352571759411
36628.0,24956.0,-0.09386386022556872
36638.0,24960.0,-0.09554409010720298
36648.0,24956.0,-0.09647104773403785
36658.0,24963.0,-0.09670128170273683
36668.0,24960.0,-0.0963212761075762
36678.0,24963.0,-0.09544632678841052
36688.0,24974.0,-0.09421787110389082
36698.0,24981.0,-0.09279929171134425
36708.0,24970.0,-0.0913706373698244
36719.0,24968.0,-0.09012287041651684
36729.0,24979.0,-0.08925170211282049
36739.0,24976.0,-0.0889504300111183
36749.0,24980.0,-0.08940130345046374
36759.0,24990.0,-0.09076553365111266
36768.0,24993.0,-0.09317253400523877
36778.0,24994.0,-0.09670935751438178
36788.0,24983.0,-0.1014115093934841
36798.0,24991.0,-0.10725597681357141
36808.0,24994.0,-0.1141566898668586
36818.0,25000.0,-0.12196249311869341
36828.0,24990.0,-0.130458186449849
36838.0,24991.0,-0.1393694937417438
36848.0,24980.0,-0.14837238960858792
36859.0,24972.0,-0.1571063803396339
36869.0,24973.0,-0.1651906030316674
36879.0,24970.0,-0.17224122769983913
36889.0,24965.0,-0.17788873144781434
36899.0,24973.0,-0.18179397271873884
36908.0,24972.0,-0.18366232973196694
36918.0,24971.0,-0.18325547909326204
36928.0,24962.0,-0.18040057354656325
36938.0,24978.0,-0.1749963531846979
36948.0,24991.0,-0.16701545826691477
36958.0,24992.0,-0.15650265288306517
36968.0,25007.0,-0.1435696013694712
36978.0,25021.0,-0.1283873536171112
36988.0,25019.0,-0.1111776707041337
36999.0,25034.0,-0.09220413602357257
37009.0,25049.0,-0.07176364911841926
37019.0,25057.0,-0.05017858522683575
37029.0,25065.0,-0.027789930184607008
37039.0,25066.0,-0.004951670261040281
37048.0,25084.0,0.017973782068792958
37058.0,25091.0,0.040619885253407886
37068.0,25090.0,0.06262081292912536
37078.0,25102.0,0.08361754139036436
37088.0,25120.0,0.10326595495287672
37098.0,25135.0,0.12124758202899688
37108.0,25157.0,0.13728266121439758
37118.0,25164.0,0.15114402447140368
37128.0,25170.0,0.16266958959202846
37139.0,25175.0,0.1717714204460756
37149.0,25171.0,0.17844013032586836
37159.0,25180.0,0.18274435227439376
37169.0,25170.0,0.18482568021636897
37179.0,25182.0,0.1848898249582196
37188.0,25176.0,0.18319480845369907
37198.0,25183.0,0.1800368923772658
37208.0,25164.0,0.1757347641045361
37218.0,25168.0,0.17061263979108018
37228.0,25170.0,0.1649834169925854
37238.0,25171.0,0.15913319068933768
37248.0,25167.0,0.15330794934424422
37258.0,25159.0,0.14770268180236648
37268.0,25155.0,0.14245314615130603
37279.0,25163.0,0.1376309696001464
37289.0,25155.0,0.13324284162888822
37299.0,25169.0,0.129234077000508
37309.0,25166.0,0.12549613319508154
37319.0,25169.0,0.12187711858307018
37328.0,25175.0,0.11819402627494746
37338.0,25164.0,0.11424541580763913
37348.0,25162.0,0.10982353943099428
37358.0,25154.0,0.10472547917352726
37368.0,25152.0,0.0987635549022387
37378.0,25154.0,0.09177563906844881
37388.0,25152.0,0.08363582907693277
37398.0,25154.0,0.07426537526479553
37408.0,25156.0,0.06364318951373318
37419.0,25156.0,0.05181485082134291
37429.0,25140.0,0.03889883152892582
37439.0,25151.0,0.02508884569677016
37449.0,25138.0,0.010651698910567185
37459.0,25134.0,-0.004079645938312599
37468.0,25133.0,-0.01871794326592776
37478.0,25122.0,-0.03283840760841722
37488.0,25107.0,-0.045999892734647496
37498.0,25096.0,-0.05776952838474369
37508.0,25083.0,-0.0677489937125492
37518.0,25080.0,-0.07559985531632707
37528.0,25081.0,-0.08106526219808975
37538.0,25086.0,-0.08398587949839194
37548.0,25089.0,-0.08430900582185649
37559.0,25085.0,-0.0820908564484601
37569.0,25098.0,-0.07749253513761965
37579.0,25100.0,-0.07077031897778019
37589.0,25109.0,-0.06226101767847933
37599.0,25117.0,-0.05236348806115949
37608.0,25120.0,-0.04151762025887659
37618.0,25133.0,-0.0301821381257534
37628.0,25137.0,-0.018812486439496123
37638.0,25145.0,-0.007840026755549949
37648.0,25155.0,0.0023462754067280355
37658.0,25151.0,0.011414599557102478
37668.0,25159.0,0.01910063854186135
37678.0,25151.0,0.0252132328284205
37688.0,25152.0,0.02963552919482476
37699.0,25148.0,0.03232250240699091
37709.0,25149.0,0.03329606876105958
37719.0,25160.0,0.03263904711450591
37729.0,25158.0,0.03048875588535569
37739.0,25160.0,0.027030276839129293
37748.0,25159.0,0.022488904099248152
37758.0,25152.0,0.01712133602943866
37768.0,25146.0,0.011205572418957756
37778.0,25151.0,0.005029959349516941
37788.0,25150.0,-0.001117927384475717
37798.0,25150.0,-0.006962110096327661
37808.0,25152.0,-0.012248790203258305
37818.0,25148.0,-0.016756986862080124
37828.0,25134.0,-0.02030941352411501
37839.0,25121.0,-0.022783210473947275
37849.0,25130.0,-0.02411920812974577
37859.0,25125.0,-0.024327756300714858
37869.0,25132.0,-0.023489527092220425
37878.0,25143.0,-0.021750771279129097
37888.0,25151.0,-0.019313572986166084
37898.0,25148.0,-0.016422489601013123
37908.0,25144.0,-0.01334933711575036
37918.0,25158.0,-0.010377488231587302
37928.0,25152.0,-0.0077863899467102765
37938.0,25159.0,-0.005836828260569546
37948.0,25153.0,-0.004757609443247497
37958.0,25158.0,-0.004734240951158058
37969.0,25149.0,-0.005899893353597153
37979.0,25148.0,-0.008328634130792715
37989.0,25152.0,-0.012030675916516607
37999.0,25148.0,-0.0169493065809083
38009.0,25160.0,-0.02295945208026953
38018.0,25162.0,-0.02986837702628933
38028.0,25162.0,-0.03741960908495598
38038.0,25144.0,-0.04530141785315047
38048.0,25139.0,-0.05316060350764402
38058.0,25138.0,-0.06062106677620798
38068.0,25133.0,-0.06730561040942504
38078.0,25119.0,-0.07285926799696121
38088.0,25113.0,-0.0769725780681521
38099.0,25108.0,-0.07940294496566018
38109.0,25099.0,-0.07999184482068843
38119.0,25114.0,-0.07867570661923992
38129.0,25126.0,-0.07548899765104147
38138.0,25137.0,-0.07055938625129578
38148.0,25138.0,-0.06409642456108959
38158.0,25138.0,-0.056376024290128966
38168.0,25149.0,-0.04772267393857621
38178.0,25149.0,-0.03849057325457811
38188.0,25152.0,-0.029044439306455318
38198.0,25164.0,-0.019740658288105842
38208.0,25171.0,-0.01090946421776521
38219.0,25167.0,-0.00283897583153657
38229.0,25175.0,0.004237966346914301
38239.0,25178.0,0.010153490856091556
38249.0,25183.0,0.014810622140158767
38258.0,25182.0,0.01818523286822301
38268.0,25179.0,0.020323817262282263
38278.0,25174.0,0.021337197250035432
38288.0,25174.0,0.02139084838353754
38298.0,25170.0,0.020693014151200867
38308.0,25182.0,0.019481867815259367
38318.0,25180.0,0.018012600340826457
38329.0,25175.0,0.01654468573407406
38339.0,25171.0,0.015329259128960935
38349.0,25179.0,0.014596847015444295
38359.0,25175.0,0.014546085465483836
38369.0,25171.0,0.01533399792928336
38378.0,25176.0,0.017068199387053
38388.0,25182.0,0.01980141305428374
38398.0,25179.0,0.023528602630025885
38408.0,25188.0,0.028186672195581675
38418.0,25187.0,0.03365643563459725
38428.0,25188.0,0.039766553858807646
38438.0,25193.0,0.04629923925551879
38449.0,25200.0,0.052997633690423866
38459.0,25197.0,0.05957472908349957
38469.0,25198.0,0.06572355718659319
38479.0,25202.0,0.07112843744314379
38489.0,25205.0,0.07547728825713983
38498.0,25208.0,0.07847497736451352
38508.0,25218.0,0.0798573437430101
38518.0,25209.0,0.0794051232259189
38528.0,25205.0,0.07695683733020234
38538.0,25216.0,0.07241995679792851
38548.0,25214.0,0.06577998570107293
38558.0,25217.0,0.057106911710556305
38569.0,25212.0,0.046557937047673
38579.0,25201.0,0.03437530473137069
38589.0,25188.0,0.020878607530356214
38599.0,25189.0,0.00645189434945137
38609.0,25179.0,-0.00847338906473286
38619.0,25169.0,-0.0234384682541768
38628.0,25160.0,-0.037979321889835334
38638.0,25149.0,-0.051649669345432025
38648.0,25134.0,-0.06404339317350465
38658.0,25136.0,-0.07481462485026695
38668.0,25130.0,-0.08369370519473854
38678.0,25135.0,-0.09049769817609948
38689.0,25136.0,-0.09513500101216639
38699.0,25132.0,-0.09760441935826705
38709.0,25134.0,-0.09798950317979453
38719.0,25142.0,-0.09644895257959595
38729.0,25144.0,-0.09320387151111788
38739.0,25146.0,-0.08852286481894747
38748.0,25153.0,-0.08270619147535717
38758.0,25148.0,-0.07607009786219752
38768.0,25145.0,-0.06893210874820521
38778.0,25155.0,-0.06159754848055034
38788.0,25161.0,-0.054347162371344175
38798.0,25178.0,-0.047425904445906455
38809.0,25172.0,-0.04103372162878314
38819.0,25166.0,-0.03531967452971604
38829.0,25155.0,-0.03038021923831722
38839.0,25166.0,-0.026261139419165386
38849.0,25160.0,-0.022961604059342573
38859.0,25167.0,-0.02043890752495594
38868.0,25179.0,-0.018613215313576133
38878.0,25170.0,-0.01737240980266186
38888.0,25168.0,-0.01657758859611193
38898.0,25175.0,-0.016069647497448714
38908.0,25166.0,-0.01567686036486282
38918.0,25170.0,-0.015223074449490797
38929.0,25172.0,-0.01453615819629297
38939.0,25173.0,-0.013456421216586046
38949.0,25154.0,-0.01184482523941492
38959.0,25170.0,-0.009590663179419945
38969.0,25166.0,-0.0066179734753798744
38979.0,25172.0,-0.0028899523045180695
38988.0,25170.0,0.0015887948265345916
38998.0,25175.0,0.00677186779005901
39008.0,25168.0,0.012572271227182085
39018.0,25180.0,0.018865112274536102
39028.0,25178.0,0.025491812658188118
39038.0,25182.0,0.03226572805044875
39049.0,25181.0,0.03897885003869476
39059.0,25177.0,0.045409271914610576
39069.0,25186.0,0.0513293524374846
39079.0,25185.0,0.05651467706405666
39089.0,25184.0,0.06075375497054686
39098.0,25191.0,0.06385809456520783
39108.0,25182.0,0.06567216817401528
39118.0,25175.0,0.06608284695357142
39128.0,25188.0,0.06502813132700623
39138.0,25194.0,0.06250512027827926
39148.0,25192.0,0.058576612579665725
39158.0,25193.0,0.05337482650119363
39169.0,25190.0,0.047100443818571834
39179.0,25175.0,0.0400157170637428
39189.0,25178.0,0.032431229773375925
39199.0,25153.0,0.024686771374511068
