timestamp_ms,ir_value,ir_filtered
6900.0,26552.0,0.013058248697442877
6910.0,26546.0,-0.1659792481902988
6920.0,26525.0,-0.33806730733183193
6930.0,26500.0,-0.49677904257086425
6940.0,26464.0,-0.6363916515744366
6950.0,26437.0,-0.7521976576890502
6960.0,26440.0,-0.840756547066187
6970.0,26448.0,-0.9000574059794529
6981.0,26459.0,-0.9295740500588369
6990.0,26479.0,-0.9302122450931154
7000.0,26482.0,-0.9041644520144936
7010.0,26494.0,-0.8546957674270629
7020.0,26502.0,-0.785885723158491
7030.0,26518.0,-0.702347670420304
7040.0,26531.0,-0.6089447305345647
7050.0,26526.0,-0.5105200618573766
7060.0,26532.0,-0.4116566982253105
7070.0,26544.0,-0.3164764333154833
7081.0,26552.0,-0.2284814442618822
7090.0,26557.0,-0.1504407319607466
7100.0,26558.0,-0.08432426616536629
7110.0,26555.0,-0.03128647030613957
7120.0,26554.0,0.008303423496282852
7130.0,26545.0,0.03479137179460817
7140.0,26554.0,0.04913959369454522
7150.0,26563.0,0.05281017801409183
7160.0,26548.0,0.047639728538718666
7170.0,26555.0,0.03570955089713256
7181.0,26545.0,0.019215187559222413
7190.0,26539.0,0.0003413444956555777
7200.0,26546.0,-0.018850097638437986
7210.0,26543.0,-0.03651176888318489
7220.0,26540.0,-0.05107755976959004
7230.0,26536.0,-0.06130278979065349
7240.0,26552.0,-0.06627734966636743
7250.0,26556.0,-0.06541260337331417
7260.0,26554.0,-0.058406781656412346
7270.0,26557.0,-0.04519744305710174
7281.0,26557.0,-0.02590914964236566
7291.0,26574.0,-0.0008015281120150984
7300.0,26567.0,0.02977811671106053
7310.0,26573.0,0.0654323899963815
7320.0,26565.0,0.10573696088362333
7330.0,26577.0,0.15024829389009614
7340.0,26580.0,0.19849844721081025
7350.0,26586.0,0.2499796959152231
7360.0,26591.0,0.30411985939535136
7370.0,26582.0,0.36024841177254535
7381.0,26590.0,0.41755539359731825
7391.0,26588.0,0.4750486452499662
7400.0,26588.0,0.531517247517341
7410.0,26604.0,0.5855089161190161
7420.0,26598.0,0.6353269928539556
7430.0,26599.0,0.6790497817891064
7440.0,26606.0,0.714573321601589
7450.0,26616.0,0.7396785436253875
7460.0,26620.0,0.7521219278905986
7470.0,26610.0,0.7497446176372243
7481.0,26613.0,0.7305928475443181
7491.0,26614.0,0.6930443401322273
7501.0,26610.0,0.6359371015442948
7510.0,26619.0,0.5586956258642377
7520.0,26613.0,0.4614462160845016
7530.0,26595.0,0.34511057366823145
7540.0,26602.0,0.2114671173068964
7550.0,26602.0,0.06317218413153529
7560.0,26601.0,-0.09626616224410932
7570.0,26581.0,-0.2625717606336197
7581.0,26559.0,-0.43085133775866336
7591.0,26533.0,-0.5958149837583219
7601.0,26510.0,-0.7520559207298644
7610.0,26477.0,-0.8943684565288893
7620.0,26451.0,-1.0180758105312915
7630.0,26426.0,-1.1193349132420614
7640.0,26438.0,-1.1953837655319297
7650.0,26439.0,-1.2447021485030711
7660.0,26451.0,-1.267069956382335
7670.0,26465.0,-1.2635239367654125
7681.0,26473.0,-1.2362260969092957
7691.0,26496.0,-1.188263750187291
7701.0,26508.0,-1.123404463273043
7710.0,26512.0,-1.0458306603062208
7720.0,26523.0,-0.959877517562748
7730.0,26529.0,-0.8697930682032369
7740.0,26523.0,-0.779533012025271
7750.0,26529.0,-0.6925966191292767
7760.0,26536.0,-0.6119044209883738
7770.0,26548.0,-0.5397147660267001
7781.0,26542.0,-0.4775767115428937
7791.0,26536.0,-0.4263181780505404
7801.0,26550.0,-0.386066399085261
7811.0,26550.0,-0.35629420192844724
7820.0,26559.0,-0.33588579189690054
7830.0,26551.0,-0.32321918674530087
7840.0,26554.0,-0.31626421658069814
7850.0,26557.0,-0.31269342482058554
7860.0,26561.0,-0.3100014188806125
7870.0,26562.0,-0.30562881135945064
7881.0,26556.0,-0.29708853282874653
7891.0,26550.0,-0.28209191126161465
7901.0,26552.0,-0.25866877817021366
7911.0,26546.0,-0.22527246347973176
7920.0,26556.0,-0.18085957323878116
7930.0,26563.0,-0.12493637365809716
7940.0,26568.0,-0.05756758334370746
7950.0,26589.0,0.020651837029292627
7960.0,26589.0,0.10865709255019568
7970.0,26601.0,0.20499857498176532
7981.0,26617.0,0.3079431519484358
7991.0,26619.0,0.41558402845767184
8001.0,26629.0,0.5259520831739996
8011.0,26641.0,0.6371225325658734
8021.0,26659.0,0.7473121936044048
8030.0,26677.0,0.8549621213029323
8040.0,26678.0,0.9587976262166193
8050.0,26670.0,1.0578568047271923
8060.0,26687.0,1.1514835326581885
8070.0,26694.0,1.2392884560415096
8081.0,26702.0,1.321084749702927
8091.0,26702.0,1.3968033224635652
8101.0,26702.0,1.4663907363258557
8111.0,26710.0,1.5296955888505122
8121.0,26709.0,1.5863529723839258
8130.0,26717.0,1.6356788810639122
8140.0,26715.0,1.6765865069810515
8150.0,26717.0,1.7075350619814027
8160.0,26737.0,1.72651978106038
8170.0,26735.0,1.731109310312557
8181.0,26749.0,1.7185337922888066
8191.0,26744.0,1.6858236840259884
8201.0,26742.0,1.6299957467639987
8211.0,26751.0,1.5482788239861978
8221.0,26745.0,1.4383680959049998
8231.0,26751.0,1.2986926135900534
8240.0,26763.0,1.1286772542910513
8250.0,26751.0,0.928977008453684
8260.0,26747.0,0.7016589380626979
8270.0,26736.0,0.450305478524778
8281.0,26703.0,0.18001223721400836
8291.0,26649.0,-0.10274452046893387
8301.0,26578.0,-0.390385658736711
8311.0,26516.0,-0.67464362658135
8321.0,26464.0,-0.9470726584644381
8331.0,26439.0,-1.1995896762907983
8340.0,26424.0,-1.4249773129237293
8350.0,26416.0,-1.6172950959988697
8360.0,26413.0,-1.7721668834698519
8370.0,26426.0,-1.886932935107263
8381.0,26431.0,-1.9606705567061953
8391.0,26440.0,-1.9940990100838683
8401.0,26457.0,-1.9893922533538393
8411.0,26456.0,-1.949926455343029
8421.0,26481.0,-1.879989176903366
8431.0,26487.0,-1.784475254926276
8440.0,26501.0,-1.6685920902394742
8450.0,26501.0,-1.5375941294446052
8460.0,26501.0,-1.3965609004913757
8470.0,26506.0,-1.250224540532401
8481.0,26514.0,-1.1028442587549423
8491.0,26521.0,-0.9581202542506971
8501.0,26536.0,-0.819139171119054
8511.0,26542.0,-0.688345250438387
8521.0,26551.0,-0.567533642674516
8531.0,26564.0,-0.45786361835750905
8541.0,26575.0,-0.35988991717120056
8550.0,26584.0,-0.2736115447276909
8560.0,26585.0,-0.19853876682037933
8570.0,26575.0,-0.13377849914900636
8581.0,26588.0,-0.07813443485468352
8591.0,26586.0,-0.03021369553925999
8601.0,26591.0,0.011469264266452157
8611.0,26593.0,0.048398244365489014
8621.0,26594.0,0.08197455166443317
8631.0,26599.0,0.11345292866605769
8641.0,26598.0,0.1438963890822626
8650.0,26603.0,0.17415125714359472
8660.0,26612.0,0.20484260768174684
8670.0,26613.0,0.23638858897545553
8681.0,26618.0,0.2690298434114185
8691.0,26618.0,0.30286891181057873
8701.0,26619.0,0.33791512197102014
8711.0,26633.0,0.37413187753178345
8721.0,26628.0,0.4114835516972568
8731.0,26635.0,0.4499781491743427
8741.0,26644.0,0.4897013500296195
8751.0,26647.0,0.5308379644044923
8760.0,26656.0,0.5736766886588913
8770.0,26649.0,0.6185937636086423
8781.0,26643.0,0.6660130856518282
8791.0,26651.0,0.7163451815312779
8801.0,26659.0,0.7699122522497809
8811.0,26664.0,0.8268669993653313
8821.0,26664.0,0.8871095314363678
8831.0,26658.0,0.9502045294313263
8841.0,26662.0,1.0153030426569225
8851.0,26668.0,1.0810771755411739
8860.0,26660.0,1.1456773600855186
8870.0,26671.0,1.2067204812633334
8881.0,26665.0,1.2613153430381256
8891.0,26674.0,1.3061304582546207
8901.0,26675.0,1.337506769606369
8911.0,26676.0,1.351614597549389
8921.0,26679.0,1.3446506931701656
8931.0,26678.0,1.3130683732131354
8941.0,26682.0,1.2538311720189137
8951.0,26687.0,1.164677467084733
8960.0,26689.0,1.044379645268174
8971.0,26689.0,0.8929771326762191
8981.0,26683.0,0.7119597153918773
8991.0,26684.0,0.5043774242091607
9001.0,26675.0,0.2748552652166529
9011.0,26649.0,0.029494318464463543
9021.0,26621.0,-0.2243530949104321
9031.0,26560.0,-0.4784344201259177
9041.0,26512.0,-0.7240561796080982
9051.0,26468.0,-0.9526133572032233
9060.0,26445.0,-1.1561352548605566
9071.0,26421.0,-1.3277907607817911
9081.0,26404.0,-1.4623042866773697
9091.0,26412.0,-1.5562471307758121
9101.0,26416.0,-1.6081832639654154
9111.0,26440.0,-1.618663936745993
9121.0,26461.0,-1.5900818307955888
9131.0,26476.0,-1.5264097189819503
9141.0,26497.0,-1.4328576275867768
9151.0,26515.0,-1.3154851083001895
9161.0,26524.0,-1.1808030404728522
9171.0,26537.0,-1.0353947258641294
9181.0,26536.0,-0.8855793536847968
9191.0,26551.0,-0.7371325890865555
9201.0,26547.0,-0.5950710335557132
9211.0,26563.0,-0.46350138686044196
9221.0,26569.0,-0.3455317428289306
9231.0,26559.0,-0.24324100464021375
9241.0,26581.0,-0.15770116857565095
9251.0,26577.0,-0.08904535259890538
9261.0,26579.0,-0.03657383270139997
9271.0,26577.0,0.0011089370186298298
9281.0,26569.0,0.025934329599937394
9291.0,26577.0,0.040197331533227146
9301.0,26575.0,0.04638413686113412
9311.0,26576.0,0.04700971014805187
9321.0,26572.0,0.0444721338647946
9331.0,26566.0,0.040928651913389666
9341.0,26573.0,0.038198492381743825
9351.0,26573.0,0.03769747402797096
9361.0,26576.0,0.040407008830545516
9371.0,26582.0,0.04687628065544098
9381.0,26574.0,0.05725348327583041
9391.0,26590.0,0.07134097008211228
9401.0,26583.0,0.08866905069537703
9411.0,26591.0,0.10858269019777654
9421.0,26597.0,0.13033460814370515
9431.0,26596.0,0.15317790065672554
9441.0,26604.0,0.1764511799326628
9452.0,26603.0,0.19964951609646736
9461.0,26605.0,0.22247559117614735
9471.0,26601.0,0.24486731284623808
9481.0,26611.0,0.26700052172602223
9491.0,26608.0,0.2892674007946235
9501.0,26610.0,0.31223171129293764
9511.0,26611.0,0.33656212222355736
9521.0,26597.0,0.3629464368064612
9531.0,26610.0,0.39199250138748526
9542.0,26605.0,0.42412432041951237
9551.0,26602.0,0.45948237015047827
9561.0,26602.0,0.49783601053889576
9571.0,26611.0,0.53851562315289
9581.0,26609.0,0.5803716936423963
9591.0,26612.0,0.6217656104900816
9601.0,26619.0,0.6605941364503344
9611.0,26613.0,0.6943479816513682
9621.0,26614.0,0.7202040625117471
9632.0,26619.0,0.7351506555802375
9642.0,26617.0,0.7361441663244057
9651.0,26620.0,0.7202941727270722
9661.0,26635.0,0.685069934802836
9671.0,26614.0,0.6285176857073475
9681.0,26630.0,0.5494749163091031
9691.0,26641.0,0.4477665937999935
9701.0,26649.0,0.3243661819122391
9711.0,26637.0,0.18149924798274059
9721.0,26624.0,0.02266500240251778
9732.0,26613.0,-0.1474426513982054
9742.0,26583.0,-0.3231210799950886
9751.0,26558.0,-0.4979466412393614
9761.0,26512.0,-0.6651478131416562
9771.0,26475.0,-0.8180352547785025
9781.0,26448.0,-0.9504484135580465
9791.0,26445.0,-1.0571713804828398
9801.0,26439.0,-1.1342739390122583
9811.0,26439.0,-1.1793468592764875
9822.0,26447.0,-1.1916164512998706
9832.0,26457.0,-1.1719360618059147
9841.0,26489.0,-1.1226618412242302
9851.0,26506.0,-1.0474297806740445
9861.0,26517.0,-0.9508606204178621
9871.0,26544.0,-0.8382247264584533
9881.0,26544.0,-0.7150980873959876
9891.0,26563.0,-0.5870357525531099
9901.0,26569.0,-0.45928316731551244
9912.0,26561.0,-0.3365395192158337
9922.0,26574.0,-0.22278022904508282
9932.0,26576.0,-0.1211386233127248
9941.0,26584.0,-0.03384218959454073
9951.0,26595.0,0.03780159468500301
9961.0,26581.0,0.09337343269567952
9971.0,26587.0,0.13326830768465417
9981.0,26589.0,0.15858652806406812
9991.0,26588.0,0.17099957699175752
10001.0,26588.0,0.17260026967918143
10012.0,26573.0,0.16574509795773382
10022.0,26575.0,0.15289720586844874
10032.0,26580.0,0.13648041539250746
10041.0,26576.0,0.11875422163482892
10051.0,26568.0,0.10171579412120714
10061.0,26571.0,0.08703180257096223
10071.0,26569.0,0.07600261986588282
10081.0,26590.0,0.06956077173747344
10091.0,26586.0,0.06830117544267528
10102.0,26592.0,0.07253462988787791
10112.0,26592.0,0.08235287217943221
10122.0,26597.0,0.09769494885096972
10131.0,26602.0,0.1184075826201862
10141.0,26607.0,0.14429366660492263
10151.0,26604.0,0.17514337576608344
10161.0,26596.0,0.210743854813602
10171.0,26605.0,0.25086738572321166
10181.0,26612.0,0.2952423228665094
10192.0,26614.0,0.34351196848012755
10202.0,26610.0,0.395184250197729
10212.0,26612.0,0.4495743776701831
10222.0,26609.0,0.5057455157097441
10231.0,26616.0,0.5624557547687007
10241.0,26616.0,0.6181203626298599
10251.0,26617.0,0.6707967116588096
10261.0,26609.0,0.7181974905124686
10271.0,26621.0,0.7577373907076701
10281.0,26627.0,0.7866179902298176
10292.0,26631.0,0.8019520218425854
10302.0,26631.0,0.8009222274991866
10312.0,26637.0,0.7809656083341938
10322.0,26636.0,0.7399723604787306
10331.0,26642.0,0.6764877988727019
10341.0,26643.0,0.5899037083691128
10351.0,26641.0,0.4806234650561275
10361.0,26643.0,0.35018400209086803
10371.0,26644.0,0.20131770842971045
10382.0,26636.0,0.0379381383952791
10392.0,26608.0,-0.13496445383269104
10402.0,26580.0,-0.31152508686515656
10412.0,26556.0,-0.48529823221764373
10421.0,26524.0,-0.6496247130490636
10431.0,26483.0,-0.7980414701246754
10441.0,26454.0,-0.9246975503557398
10451.0,26448.0,-1.024734710084945
10461.0,26442.0,-1.0945914923387343
10472.0,26458.0,-1.132199690895348
10482.0,26469.0,-1.1370590278150985
10492.0,26484.0,-1.1101930790171202
10502.0,26503.0,-1.0540025242798758
10512.0,26533.0,-0.9720397444239994
10521.0,26536.0,-0.8687333510533056
10531.0,26540.0,-0.749092670755478
10541.0,26547.0,-0.6184176523738562
10551.0,26560.0,-0.4820299287327472
10562.0,26570.0,-0.3450326150278135
10572.0,26580.0,-0.2121038553361032
10582.0,26586.0,-0.08732925856280731
10592.0,26595.0,0.025922547114050166
10602.0,26593.0,0.12507944281952732
10611.0,26606.0,0.2084014964439393
10621.0,26605.0,0.2749761289456882
10631.0,26595.0,0.32467738149879055
10641.0,26602.0,0.3580954672855778
10652.0,26606.0,0.37644525830794173
10662.0,26612.0,0.38146264248722306
10672.0,26603.0,0.3752941333248524
10682.0,26603.0,0.3603817827261166
10692.0,26601.0,0.3393458604297683
10702.0,26603.0,0.31486968139910715
10711.0,26600.0,0.2895908628626853
10721.0,26593.0,0.2660015741444734
10731.0,26585.0,0.24635984071673303
10741.0,26595.0,0.232615490264087
10752.0,26598.0,0.2263550338873694
10762.0,26600.0,0.22876683713200485
10772.0,26599.0,0.2406233761105625
10782.0,26605.0,0.262275550907125
10792.0,26604.0,0.2936552833932494
10802.0,26609.0,0.3342841836667088
10811.0,26634.0,0.3832863627897351
10821.0,26611.0,0.43940217179286023
10831.0,26617.0,0.5009987283032293
10842.0,26613.0,0.5660766194447707
10852.0,26625.0,0.632278676301244
10862.0,26623.0,0.6969092664586768
10872.0,26618.0,0.7569700121484014
10882.0,26618.0,0.8092158169572585
10892.0,26617.0,0.8502361308926164
10901.0,26625.0,0.8765672741132895
10911.0,26629.0,0.8848390218768281
10921.0,26626.0,0.8719531182873353
10932.0,26636.0,0.8352860245094689
10942.0,26639.0,0.7729045622596149
10952.0,26641.0,0.683779852922378
10962.0,26645.0,0.5679813554613126
10972.0,26639.0,0.426830466348417
10982.0,26641.0,0.2629931007369754
10992.0,26640.0,0.08049220596440049
11001.0,26610.0,-0.1153763395276706
11011.0,26584.0,-0.31823558820571946
11022.0,26551.0,-0.5209269637428512
11032.0,26507.0,-0.7159014389024959
11042.0,26477.0,-0.8956720866470802
11052.0,26445.0,-1.0532875278276117
11062.0,26406.0,-1.1827809014357764
11072.0,26415.0,-1.2795493184520057
11082.0,26417.0,-1.340625008431594
11091.0,26430.0,-1.3648135936735457
11101.0,26447.0,-1.3526947161489844
11112.0,26455.0,-1.3064974861080785
11122.0,26484.0,-1.2298732534060497
11132.0,26504.0,-1.1275931255232554
11142.0,26523.0,-1.0052009567018265
11152.0,26532.0,-0.8686543511467981
11162.0,26528.0,-0.7239834707089252
11172.0,26542.0,-0.5769887086900006
11182.0,26552.0,-0.43298744125234534
11191.0,26565.0,-0.296613219655318
11201.0,26559.0,-0.17166942007039102
11212.0,26568.0,-0.06103874089580589
11222.0,26568.0,0.03335365224916575
11232.0,26570.0,0.11052987150698437
11242.0,26576.0,0.17041045677560385
11252.0,26579.0,0.2137351722812862
11262.0,26576.0,0.24196037307438256
11272.0,26576.0,0.25713870051319077
11282.0,26584.0,0.26178678905572017
11291.0,26588.0,0.2587463240941666
11302.0,26574.0,0.2510416466865582
11312.0,26563.0,0.2417359070401132
11322.0,26579.0,0.2337907478980177
11332.0,26576.0,0.22993784527242997
11342.0,26578.0,0.23256843945058225
11352.0,26570.0,0.24364184630523586
11362.0,26587.0,0.26461229115257073
11372.0,26589.0,0.2963743264800463
11381.0,26586.0,0.3392259702538212
11392.0,26591.0,0.39284678555554703
11402.0,26590.0,0.4562892760701233
11412.0,26598.0,0.5279850030746586
11422.0,26605.0,0.6057681028205995
11432.0,26613.0,0.6869176642127989
11442.0,26601.0,0.7682185390654707
11452.0,26607.0,0.846040345425174
11462.0,26618.0,0.9164372751741655
11472.0,26613.0,0.9752728568654895
11482.0,26617.0,1.0183713686549893
11492.0,26616.0,1.0416944054024784
11502.0,26627.0,1.0415396632274372
11512.0,26623.0,1.0147569135896526
11522.0,26627.0,0.9589721136440478
11532.0,26631.0,0.8728068026985765
11542.0,26639.0,0.7560771921588532
11552.0,26634.0,0.6099542571488774
11562.0,26629.0,0.43706336587352107
11572.0,26623.0,0.24150244071530613
11582.0,26611.0,0.028761809092554668
11592.0,26570.0,-0.19446485186063453
11602.0,26541.0,-0.4205797402609239
11612.0,26492.0,-0.6414773744918865
11622.0,26460.0,-0.8490092643159434
11632.0,26423.0,-1.0354756683848212
11642.0,26389.0,-1.1940977091206992
11652.0,26390.0,-1.3194236506077788
11663.0,26397.0,-1.4076301514372105
11672.0,26408.0,-1.4566943135085204
11682.0,26408.0,-1.4664321929691324
11692.0,26419.0,-1.4384151370432627
11702.0,26445.0,-1.375782155776194
11712.0,26463.0,-1.282969451226151
11722.0,26483.0,-1.1653828218041797
11732.0,26488.0,-1.0290429494881794
11742.0,26509.0,-0.880232653952199
11752.0,26514.0,-0.7251693125943764
11762.0,26518.0,-0.5697187768930589
11772.0,26525.0,-0.41916074473131293
11782.0,26524.0,-0.2780089323038642
11792.0,26546.0,-0.14988371406290402
11802.0,26554.0,-0.03743285781780828
11812.0,26562.0,0.05770185051720104
11822.0,26556.0,0.13487139520047434
11832.0,26549.0,0.19436026512233237
11842.0,26557.0,0.23728751346606616
11853.0,26557.0,0.26547989495334706
11862.0,26568.0,0.2813289234636274
11872.0,26559.0,0.28763938065743866
11882.0,26557.0,0.28747310836443646
11892.0,26561.0,0.2839919579391852
11902.0,26560.0,0.28030557101338194
11912.0,26572.0,0.27932935038393913
11922.0,26557.0,0.28365516834593174
11932.0,26556.0,0.2954355908663449
11943.0,26563.0,0.3162841877192813
11952.0,26572.0,0.34719705848854554
11962.0,26575.0,0.38849925751893327
11972.0,26567.0,0.43981552045823397
11982.0,26582.0,0.5000632509319853
11992.0,26579.0,0.5674679197387547
12002.0,26585.0,0.6396025381879142
12012.0,26591.0,0.7134521991613557
12022.0,26581.0,0.7855040416096086
12033.0,26599.0,0.8518634406694584
12043.0,26593.0,0.908397589496853
12052.0,26602.0,0.9509063213832045
12062.0,26601.0,0.9753172668395689
12072.0,26607.0,0.9778999983331972
12082.0,26613.0,0.9554917504275083
12092.0,26620.0,0.9057243097196539
12102.0,26620.0,0.8272377121081166
12112.0,26611.0,0.7198632826531194
12123.0,26611.0,0.5847585627870053
12133.0,26616.0,0.4244793400472385
12142.0,26610.0,0.24297569718207704
12152.0,26586.0,0.04549870378707791
12162.0,26562.0,-0.16159294482007694
12172.0,26532.0,-0.3711272260528129
12182.0,26485.0,-0.5755007465171726
12192.0,26443.0,-0.7671211125955304
12202.0,26417.0,-0.9388702910789537
12213.0,26398.0,-1.0845420133499266
12223.0,26391.0,-1.1992080778684082
12233.0,26399.0,-1.2794795826691094
12242.0,26406.0,-1.3236450150090078
12252.0,26421.0,-1.3316833934907355
12262.0,26423.0,-1.3051639988120813
12272.0,26454.0,-1.2470523384914218
12282.0,26468.0,-1.1614460206540809
12292.0,26480.0,-1.0532672552519693
12302.0,26496.0,-0.9279403261243002
12313.0,26499.0,-0.7910797264407593
12323.0,26510.0,-0.6482082314549389
12333.0,26513.0,-0.5045169141290997
12342.0,26524.0,-0.36467272411669255
12352.0,26528.0,-0.23267462497749603
12362.0,26537.0,-0.11175665062641667
12372.0,26540.0,-0.004334830604885358
12382.0,26548.0,0.08800607241860296
12392.0,26556.0,0.1644907142638257
12403.0,26550.0,0.2251009241875509
12413.0,26551.0,0.27049800335522023
12423.0,26560.0,0.30192606392947646
12432.0,26563.0,0.32110406369704625
12442.0,26567.0,0.33011227022529505
12452.0,26555.0,0.3312755570192316
12462.0,26555.0,0.32704546482069163
12472.0,26558.0,0.3198857927981041
12482.0,26562.0,0.31216840157976955
12493.0,26560.0,0.30608387939278625
12503.0,26551.0,0.3035682084036363
12513.0,26566.0,0.3062456225610629
12523.0,26572.0,0.3153884618163853
12532.0,26573.0,0.33189286816319497
12542.0,26572.0,0.3562653932538589
12552.0,26567.0,0.3886151207004374
12562.0,26583.0,0.4286496119077639
12572.0,26586.0,0.4756759590742479
12583.0,26584.0,0.5286072700728152
12593.0,26581.0,0.5859731492321831
12603.0,26590.0,0.6459344553528644
12613.0,26590.0,0.7063060912820848
12622.0,26594.0,0.7645924281117338
12632.0,26595.0,0.818038397089002
12642.0,26589.0,0.8636982981581864
12652.0,26601.0,0.8985247105676171
12662.0,26600.0,0.919479759460758
12673.0,26609.0,0.9236685198834027
12683.0,26599.0,0.9084902572720595
12693.0,26605.0,0.8718004611842523
12703.0,26606.0,0.8120761321669431
12713.0,26610.0,0.7285759979257639
12722.0,26616.0,0.6214842788092391
12732.0,26598.0,0.49202288079522116
12742.0,26599.0,0.3425159322191454
12752.0,26602.0,0.17639340677066773
12763.0,26585.0,-0.0018761965009946376
12773.0,26566.0,-0.18693250361493036
12783.0,26531.0,-0.3727532426594825
12793.0,26507.0,-0.5529608390461976
12803.0,26460.0,-0.7211853310636295
12812.0,26433.0,-0.8714516901883497
12822.0,26426.0,-0.9985521991133002
12832.0,26406.0,-1.0983639988704137
12842.0,26414.0,-1.1680798971347062
12852.0,26425.0,-1.206333518333142
12863.0,26441.0,-1.2132138276216577
12873.0,26453.0,-1.190177767408457
12883.0,26463.0,-1.1398805612249636
12893.0,26478.0,-1.0659479378462637
12903.0,26495.0,-0.9727141617651316
12912.0,26503.0,-0.8649480198996761
12922.0,26502.0,-0.7475868821735688
12932.0,26512.0,-0.6254944915636662
12942.0,26517.0,-0.5032510485143588
12953.0,26538.0,-0.38497845078870724
12963.0,26538.0,-0.2742023748799322
12973.0,26539.0,-0.17375410427326102
12983.0,26553.0,-0.08571415873150254
12993.0,26547.0,-0.011396338087919258
13002.0,26553.0,0.04863204808902912
13012.0,26559.0,0.09449921392941875
13022.0,26555.0,0.1269532021509938
13032.0,26560.0,0.1472673305835796
13043.0,26559.0,0.15713224489065075
13053.0,26555.0,0.15854004351465809
13063.0,26556.0,0.1536661024951644
13073.0,26542.0,0.14475470191025386
13083.0,26558.0,0.13401539711809
13093.0,26557.0,0.1235366415837803
13102.0,26563.0,0.11521962886994999
13112.0,26561.0,0.11073027055382519
13122.0,26548.0,0.11146498038433092
13133.0,26567.0,0.11852800773459114
13143.0,26570.0,0.1327207031402296
13153.0,26574.0,0.154541747742257
13163.0,26572.0,0.18419343763143567
13173.0,26577.0,0.2215881917271919
13183.0,26582.0,0.2663523771755861
13192.0,26584.0,0.31782717678951133
13202.0,26595.0,0.37506667650710923
13212.0,26579.0,0.43683328993569087
13223.0,26597.0,0.5015920371806722
13233.0,26596.0,0.5675077865699029
13243.0,26594.0,0.6324507357429641
13253.0,26600.0,0.6940145996172592
13263.0,26596.0,0.7495517199641433
13273.0,26609.0,0.796229764219573
13283.0,26607.0,0.8311134669516269
13292.0,26603.0,0.8512719342726665
13302.0,26606.0,0.8539098539980717
13313.0,26608.0,0.8365205359387085
13323.0,26617.0,0.7970575603048291
13333.0,26619.0,0.7341176550743975
13343.0,26628.0,0.6471216405362692
13353.0,26618.0,0.5364757547014704
13363.0,26628.0,0.4036940394083139
13373.0,26617.0,0.2514634772777989
13382.0,26611.0,0.08363584262600082
13392.0,26592.0,-0.0948662709139843
13403.0,26569.0,-0.27823550885848924
13413.0,26542.0,-0.46005484079158887
13423.0,26500.0,-0.6336476031242112
13433.0,26472.0,-0.7924769969658539
13443.0,26435.0,-0.9305592217508818
13453.0,26418.0,-1.0428479279907357
13463.0,26431.0,-1.1255479880862607
13473.0,26432.0,-1.176325976373556
13482.0,26446.0,-1.1944020230013837
13493.0,26458.0,-1.1805258256764082
13503.0,26469.0,-1.1368516612689221
13513.0,26488.0,-1.0667329704226078
13523.0,26508.0,-0.9744597060823308
13533.0,26519.0,-0.8649632485283729
13543.0,26525.0,-0.7435140105530947
13553.0,26533.0,-0.6154337275423017
13563.0,26541.0,-0.4858376875770995
13572.0,26550.0,-0.3594152746876294
13583.0,26562.0,-0.2402531411423567
13593.0,26553.0,-0.13170358507266694
13603.0,26574.0,-0.03629887006759487
13613.0,26581.0,0.04429019471810755
13623.0,26582.0,0.10925362516503953
13633.0,26581.0,0.15860048588457878
13643.0,26573.0,0.1930779691195399
13653.0,26572.0,0.21405815247677354
13663.0,26582.0,0.22340382757301946
13673.0,26584.0,0.2233250192430887
13683.0,26564.0,0.21623399350170797
13693.0,26569.0,0.20460395957543442
13703.0,26566.0,0.19083866291802273
13713.0,26580.0,0.17716196898398684
13723.0,26570.0,0.16553317375742005
13733.0,26571.0,0.15758812336445865
13743.0,26581.0,0.15460383691472174
13753.0,26578.0,0.1574846234177365
13762.0,26585.0,0.166766867889938
13773.0,26594.0,0.1826376956865936
13783.0,26572.0,0.20496188990117792
13793.0,26593.0,0.23331292426281236
13803.0,26600.0,0.26700691681540495
13813.0,26602.0,0.30513875861749945
13823.0,26604.0,0.3466164411623278
13833.0,26589.0,0.39018841647114694
13843.0,26601.0,0.4344632412121919
13853.0,26605.0,0.4779263858046931
13863.0,26606.0,0.5189601949400856
13873.0,26607.0,0.5558698372172767
13883.0,26605.0,0.5869156749515833
13893.0,26607.0,0.6103530721847328
13903.0,26610.0,0.6244818224708387
13913.0,26614.0,0.6277067433767994
13923.0,26607.0,0.6186087064791006
13933.0,26605.0,0.5960234841610259
13943.0,26615.0,0.5591256540665562
13953.0,26609.0,0.5075145165208099
13963.0,26611.0,0.44129647450650694
13973.0,26605.0,0.36115557083341915
13983.0,26611.0,0.26840333515770043
13993.0,26604.0,0.1649995180201829
14003.0,26609.0,0.053534936430601955
14013.0,26590.0,-0.06283250430544793
14023.0,26567.0,-0.1804950119359738
14033.0,26551.0,-0.2955645831802742
14044.0,26537.0,-0.4040843436229757
14053.0,26509.0,-0.5022629877700864
14063.0,26498.0,-0.5867104978685546
14073.0,26482.0,-0.6546521074048962
14083.0,26481.0,-0.7040977354854808
14093.0,26490.0,-0.7339481635703724
14103.0,26501.0,-0.7440278550628013
14113.0,26512.0,-0.7350456831613836
14123.0,26518.0,-0.7084951553988231
14134.0,26533.0,-0.6665114551688583
14143.0,26537.0,-0.6117036777046607
14153.0,26544.0,-0.5469793516033119
14163.0,26538.0,-0.47537556306801376
14173.0,26550.0,-0.39990625571502236
14183.0,26553.0,-0.3234300316627075
14193.0,26560.0,-0.24853998409034042
14203.0,26563.0,-0.1774770587490024
14213.0,26557.0,-0.11206838566646897
14224.0,26569.0,-0.053690055610364974
14234.0,26583.0,-0.003251596083065547
14243.0,26579.0,0.03879980867386417
14253.0,26580.0,0.0724542096988319
14263.0,26565.0,0.0980916384000166
14273.0,26575.0,0.1164163169016304
14283.0,26578.0,0.12838090718455308
14293.0,26573.0,0.13510933861719146
14303.0,26577.0,0.1378230329126317
14314.0,26565.0,0.13777302482002934
14324.0,26569.0,0.13618127799560542
14333.0,26576.0,0.13419580964307415
14343.0,26585.0,0.1328628892522601
14353.0,26576.0,0.13311501502032536
14363.0,26586.0,0.1357692526239854
14373.0,26582.0,0.14153030113944218
14383.0,26588.0,0.15099456558253116
14393.0,26594.0,0.1646523502891775
14404.0,26576.0,0.1828852132478232
14414.0,26591.0,0.20595675383152456
14424.0,26591.0,0.23399795856591507
14433.0,26591.0,0.26698967541486995
14443.0,26596.0,0.3047435077569703
14453.0,26596.0,0.34688141750906537
14463.0,26598.0,0.39281510146377435
14473.0,26609.0,0.4417270821158582
14483.0,26609.0,0.4925552413274549
14494.0,26602.0,0.5439816536384828
14504.0,26609.0,0.5944270374588184
14514.0,26607.0,0.6420546645885049
14523.0,26610.0,0.6847893381860797
14533.0,26609.0,0.7203562396793461
14543.0,26604.0,0.7463428772480388
14553.0,26613.0,0.7602865636206949
14563.0,26615.0,0.7597886526907673
14573.0,26622.0,0.7426533727742486
14584.0,26623.0,0.7070439959644671
14594.0,26618.0,0.6516449677626162
14604.0,26616.0,0.5758174198869529
14614.0,26627.0,0.47973642323564064
14623.0,26623.0,0.36449837905395277
14633.0,26616.0,0.23218468775048545
14643.0,26612.0,0.0858665538536999
14653.0,26594.0,-0.07046124156903603
14663.0,26580.0,-0.2320236889702806
14674.0,26554.0,-0.3934849091982351
14684.0,26519.0,-0.5492341002852215
14694.0,26494.0,-0.6937190001825025
14704.0,26453.0,-0.8217979688465148
14713.0,26444.0,-0.9290744274198239
14723.0,26447.0,-1.012175862544288
14733.0,26438.0,-1.0689466584662233
14743.0,26454.0,-1.0985380512912672
14753.0,26467.0,-1.1013931870836935
14764.0,26482.0,-1.079136955197939
14774.0,26498.0,-1.0343895889382657
14784.0,26513.0,-0.9705293297526266
14794.0,26519.0,-0.8914314052562459
14804.0,26530.0,-0.8012086044572271
14813.0,26534.0,-0.703973899697239
14823.0,26531.0,-0.6036392045277875
14833.0,26536.0,-0.5037575499422847
14843.0,26538.0,-0.40740937348465583
14853.0,26545.0,-0.317128919699165
14864.0,26549.0,-0.2348652923643827
14874.0,26552.0,-0.16197335598370005
14884.0,26561.0,-0.09923049856958668
14894.0,26554.0,-0.04687556329477177
14903.0,26563.0,-0.004666004941559764
14913.0,26575.0,0.028051158775068915
14923.0,26559.0,0.05225844266862418
14933.0,26565.0,0.06917968054754646
14943.0,26564.0,0.0801881557134294
14954.0,26567.0,0.08671702524225408
14964.0,26566.0,0.09017771681580236
14974.0,26556.0,0.09188980836789871
14984.0,26560.0,0.09302540070358568
14994.0,26570.0,0.09457197352125872
15003.0,26575.0,0.09731639977430286
15013.0,26567.0,0.10184808061749243
15023.0,26569.0,0.10857561290278231
15033.0,26575.0,0.11775251923971883
15044.0,26575.0,0.12951007537731002
15054.0,26581.0,0.14389504273117287
15064.0,26587.0,0.1609081661858358
15074.0,26582.0,0.18053812437835393
15084.0,26587.0,0.2027859555223506
15093.0,26593.0,0.2276767209551406
15103.0,26592.0,0.25525692589505494
15113.0,26579.0,0.2855770780140134
15123.0,26590.0,0.3186607912091389
15134.0,26595.0,0.35446535402543067
15144.0,26596.0,0.39283957336877234
15154.0,26600.0,0.4334818708851299
15164.0,26592.0,0.4758995772039454
15174.0,26602.0,0.5193717316278201
15184.0,26602.0,0.5629199953909243
15193.0,26610.0,0.6052924195098085
15203.0,26600.0,0.6449628709911962
15213.0,26602.0,0.6801478552611551
15224.0,26600.0,0.7088438868497501
15234.0,26616.0,0.7288899258556351
15244.0,26618.0,0.738057009923531
15254.0,26605.0,0.7341616056517493
15264.0,26619.0,0.715195467365477
15274.0,26608.0,0.6794653166132395
15283.0,26617.0,0.6257366333403135
15293.0,26616.0,0.553374222984094
15303.0,26605.0,0.4624696076978836
15314.0,26619.0,0.35394387696286794
15324.0,26614.0,0.2296142271007098
15334.0,26618.0,0.09221122283662704
15344.0,26591.0,-0.054667470544057205
15354.0,26578.0,-0.2066780310318589
15364.0,26554.0,-0.35892786429690476
15374.0,26527.0,-0.5062395764164971
15383.0,26489.0,-0.6434618994058511
15393.0,26462.0,-0.7657996193300378
15404.0,26455.0,-0.8691275643542621
15414.0,26447.0,-0.9502523955481669
15424.0,26454.0,-1.0070937488588787
15434.0,26461.0,-1.0387700172693555
15444.0,26468.0,-1.045587771456319
15454.0,26493.0,-1.028944492833513
15464.0,26502.0,-0.9911621484385643
15473.0,26517.0,-0.9352749086187258
15483.0,26521.0,-0.8647968500030674
15494.0,26521.0,-0.7834930112751887
15504.0,26523.0,-0.6951703480312165
15514.0,26529.0,-0.6034969058617141
15524.0,26543.0,-0.5118514444530476
15534.0,26544.0,-0.42320404180519755
15544.0,26544.0,-0.3400292169289226
15554.0,26547.0,-0.2642525765460562
15563.0,26558.0,-0.1972288295800683
15573.0,26562.0,-0.13974682444363318
15584.0,26558.0,-0.09205820176614986
15594.0,26555.0,-0.053927241652893795
15604.0,26564.0,-0.024697554259145688
15614.0,26570.0,-0.00336896600102497
15624.0,26575.0,0.011320622212189553
15634.0,26557.0,0.02080988929828818
15644.0,26571.0,0.02662596897185313
15654.0,26570.0,0.030297127094723722
15663.0,26568.0,0.033271235411318684
15674.0,26562.0,0.036843263284578265
15684.0,26557.0,0.042094372738639536
15694.0,26566.0,0.04984729330323065
15704.0,26572.0,0.060643395792318415
15714.0,26581.0,0.07474327679259614
15724.0,26573.0,0.09214703164204804
15734.0,26574.0,0.1126277014468358
15744.0,26584.0,0.13577335398127016
15754.0,26586.0,0.16103599399638738
15764.0,26591.0,0.18778497314169787
15774.0,26578.0,0.2153606050584588
15784.0,26596.0,0.24312440404473168
15794.0,26597.0,0.27050487019421393
15804.0,26600.0,0.29703776940988597
15814.0,26598.0,0.3223975854218229
15824.0,26599.0,0.3464165903014551
15834.0,26602.0,0.3690906183263787
15844.0,26606.0,0.3905728379222124
15854.0,26614.0,0.41115665569994386
15864.0,26606.0,0.4312473441848797
15874.0,26603.0,0.45132155619368036
15884.0,26600.0,0.4718764830930542
15894.0,26614.0,0.49337433234566663
15904.0,26620.0,0.5161884545929227
15914.0,26614.0,0.5405534846221317
15924.0,26612.0,0.5665181406137314
15934.0,26614.0,0.5939005888926583
15944.0,26617.0,0.6222502974004507
15954.0,26624.0,0.6508216868217476
15964.0,26619.0,0.6785627510495066
15974.0,26619.0,0.7041195532695773
15984.0,26625.0,0.725857484158797
15994.0,26622.0,0.7419010411646716
16004.0,26623.0,0.7501933466998287
16014.0,26614.0,0.7485753611478954
16024.0,26613.0,0.7348848038255724
16035.0,26619.0,0.7070755794045328
16044.0,26616.0,0.6633573128185639
16054.0,26627.0,0.602350328381742
16064.0,26621.0,0.5232460178798177
16074.0,26619.0,0.4259586690891946
16084.0,26626.0,0.3112535989462597
16094.0,26634.0,0.18083648816451084
16104.0,26617.0,0.03738772647747067
16114.0,26605.0,-0.1154748824235752
16124.0,26590.0,-0.273316624878014
16135.0,26562.0,-0.4310908581311191
16144.0,26529.0,-0.5834187990106534
16154.0,26486.0,-0.7249237688853829
16164.0,26464.0,-0.8505880685924659
16174.0,26454.0,-0.9560919339130356
16184.0,26454.0,-1.0380943696808287
16194.0,26457.0,-1.0944266240686547
16204.0,26460.0,-1.1241848982886053
16214.0,26478.0,-1.1277225821684886
16225.0,26493.0,-1.1065520043296198
16234.0,26509.0,-1.0631733888821198
16244.0,26519.0,-1.0008547719307508
16254.0,26518.0,-0.9233886128463468
16264.0,26523.0,-0.8348471412261876
16274.0,26544.0,-0.7393512676890187
16284.0,26549.0,-0.6408624321104164
16294.0,26547.0,-0.5430057814825974
16304.0,26551.0,-0.4489323952123488
16315.0,26557.0,-0.3612237001057966
16324.0,26560.0,-0.28183570905256305
16334.0,26574.0,-0.2120787602277107
16344.0,26567.0,-0.15262951787044865
16354.0,26568.0,-0.10357286907889696
16364.0,26572.0,-0.06446986008683114
16374.0,26578.0,-0.03444520737272296
16384.0,26579.0,-0.012287588269349496
16394.0,26560.0,0.003442324318616161
16405.0,26575.0,0.014301380575351559
16415.0,26578.0,0.0218588355201201
16424.0,26578.0,0.02760396511349458
16434.0,26572.0,0.03286940519416923
16444.0,26572.0,0.03877064511131657
16454.0,26574.0,0.046163697124600625
16464.0,26577.0,0.05562446323046146
16474.0,26588.0,0.0674516056049691
16484.0,26587.0,0.08169085324083919
16495.0,26590.0,0.09817517763014141
16505.0,26586.0,0.1165743056725415
16514.0,26601.0,0.1364486815150615
16524.0,26593.0,0.1573045806832179
16534.0,26590.0,0.17864712602776722
16544.0,26608.0,0.20002839630121685
16554.0,26602.0,0.22108894124900816
16564.0,26604.0,0.24159041893566138
16574.0,26610.0,0.2614359001910158
16585.0,26598.0,0.2806755332245951
16595.0,26605.0,0.299497942125753
16605.0,26609.0,0.3182100259935281
16614.0,26616.0,0.3372083176702685
16624.0,26610.0,0.3569430421079622
16634.0,26608.0,0.3778742181542337
16644.0,26606.0,0.40042082680657926
16654.0,26619.0,0.4249075358468978
16664.0,26619.0,0.45151423885983055
16675.0,26621.0,0.48023078726451
16685.0,26615.0,0.5108166877937764
16695.0,26616.0,0.5427665948511331
16704.0,26634.0,0.5752853423195481
16714.0,26625.0,0.6072764930656391
16724.0,26621.0,0.6373455136426354
16734.0,26622.0,0.663817642475579
16744.0,26626.0,0.6847731842025462
16754.0,26619.0,0.6981047000944487
16765.0,26630.0,0.7015987635605251
16775.0,26613.0,0.6930422066782526
16785.0,26622.0,0.6703512088564789
16795.0,26635.0,0.6317204376376462
16804.0,26641.0,0.5757859802596224
16814.0,26629.0,0.5017891175584167
16824.0,26629.0,0.4097233266821371
16834.0,26635.0,0.30044862665998523
16844.0,26629.0,0.17576114195911524
16855.0,26626.0,0.03840635022138304
16865.0,26607.0,-0.1079755585263352
16875.0,26595.0,-0.25897984557335646
16885.0,26571.0,-0.40964277212773614
16894.0,26539.0,-0.5547133972794186
16904.0,26506.0,-0.688973147150072
16914.0,26478.0,-0.8075748918714563
16924.0,26469.0,-0.9063655372892644
16934.0,26470.0,-0.9821553650505861
16945.0,26465.0,-1.032905757569413
16955.0,26486.0,-1.057820847145813
16965.0,26482.0,-1.0573421502078317
16975.0,26501.0,-1.0330553545682883
16985.0,26520.0,-0.9875249206564098
16994.0,26533.0,-0.9240765085565663
17004.0,26537.0,-0.8465506673912925
17014.0,26542.0,-0.7590515052458869
17024.0,26550.0,-0.6657090848345282
17035.0,26561.0,-0.5704673046974812
17045.0,26565.0,-0.47690467815942483
17055.0,26565.0,-0.38809374160706245
17065.0,26570.0,-0.3065026218464403
17075.0,26579.0,-0.23393862633966242
17085.0,26579.0,-0.1715310743980775
17094.0,26585.0,-0.11975030051981972
17104.0,26577.0,-0.07845977077724937
17114.0,26578.0,-0.04699650638289751
17124.0,26582.0,-0.0242721594758914
17135.0,26585.0,-0.008885648676336922
17145.0,26580.0,0.0007603232453315263
17155.0,26573.0,0.006344442098224845
17165.0,26584.0,0.009519331951642214
17175.0,26582.0,0.011818026536138903
17184.0,26580.0,0.014579228842013197
17194.0,26582.0,0.018893207770834856
17204.0,26580.0,0.025569069039624952
17214.0,26594.0,0.035124214275937087
17225.0,26594.0,0.04779522258523587
17235.0,26598.0,0.06356604672437723
17245.0,26592.0,0.08220717457418518
17255.0,26596.0,0.10332052691865279
17265.0,26599.0,0.12638794747749874
17275.0,26607.0,0.15082271112256584
17284.0,26609.0,0.17602214983812584
17294.0,26601.0,0.20141740844036857
17304.0,26612.0,0.22651653701191696
17315.0,26605.0,0.2509395960378675
17325.0,26621.0,0.2744461328453103
17335.0,26624.0,0.29695442075403716
17345.0,26616.0,0.31854949732641996
17355.0,26617.0,0.33947640216780683
17365.0,26621.0,0.3601179518046912
17374.0,26625.0,0.38096003690489244
17384.0,26626.0,0.40254777927232727
17394.0,26626.0,0.42543403868483864
17405.0,26629.0,0.450121192917802
17415.0,26628.0,0.4769982443710785
17425.0,26635.0,0.5062764212158839
17435.0,26621.0,0.5379269091498201
17445.0,26627.0,0.5716252725222578
17455.0,26635.0,0.6067089268166906
17465.0,26634.0,0.6421542844915616
17474.0,26639.0,0.676577283342979
17484.0,26637.0,0.7082577608201556
17495.0,26637.0,0.7351873648333253
17505.0,26646.0,0.7551412390067446
17515.0,26649.0,0.7657730884258147
17525.0,26646.0,0.7647306022218863
17535.0,26635.0,0.7497857516408999
17545.0,26645.0,0.7189749923976649
17555.0,26645.0,0.6707461537472877
17564.0,26648.0,0.6041072743348197
17574.0,26649.0,0.5187678500890339
17585.0,26642.0,0.4152591762307643
17595.0,26645.0,0.29501988776432764
17605.0,26652.0,0.16043385741163466
17615.0,26641.0,0.014807826982692297
17625.0,26609.0,-0.13772355217896265
17635.0,26599.0,-0.29237210534168484
17645.0,26568.0,-0.443944830963493
17654.0,26532.0,-0.5871494045857988
17664.0,26514.0,-0.7169300802572427
17675.0,26476.0,-0.8288010148431344
17685.0,26480.0,-0.9191406216007264
17695.0,26480.0,-0.9854134037529177
17705.0,26496.0,-1.0262963606680753
17715.0,26501.0,-1.0417032616656727
17725.0,26510.0,-1.0327153034424539
17735.0,26525.0,-1.0014353615778335
17745.0,26546.0,-0.9507861662876794
17754.0,26555.0,-0.884274710949444
17765.0,26559.0,-0.8057470067303587
17775.0,26563.0,-0.7191555781292056
17785.0,26561.0,-0.6283553558126075
17795.0,26572.0,-0.5369351792120779
17805.0,26574.0,-0.4480861069814348
17815.0,26574.0,-0.3645052785201297
17825.0,26586.0,-0.2883333216823151
17835.0,26592.0,-0.2211227159049378
17844.0,26589.0,-0.16383475732331082
17855.0,26597.0,-0.11686345185808608
17865.0,26590.0,-0.08008378137431735
17875.0,26594.0,-0.05291957277116357
17885.0,26598.0,-0.0344245643282824
17895.0,26602.0,-0.02337037058346796
17905.0,26602.0,-0.01833705717614651
17915.0,26595.0,-0.017804236616840084
17925.0,26592.0,-0.02024043043772467
17935.0,26594.0,-0.024185989272998667
17945.0,26600.0,-0.028323268649332777
17955.0,26599.0,-0.03152954623864158
17965.0,26593.0,-0.0329118264275247
17975.0,26594.0,-0.031824358567711264
17985.0,26600.0,-0.027868574813697502
17995.0,26610.0,-0.020874764398218303
18005.0,26605.0,-0.010867666520351812
18015.0,26606.0,0.0019783643835699595
18025.0,26608.0,0.017388857642616294
18035.0,26618.0,0.03504003381716587
18045.0,26623.0,0.054608271235921844
18055.0,26618.0,0.07581363266666333
18065.0,26621.0,0.09845182193284781
18075.0,26622.0,0.12241123470014746
18085.0,26629.0,0.1476750511377746
18095.0,26632.0,0.17430930326826696
18105.0,26622.0,0.20243704524669207
18115.0,26628.0,0.232199328735166
18125.0,26627.0,0.26370660820584974
18136.0,26638.0,0.29698646507114407
18145.0,26637.0,0.33193251685389574
18155.0,26629.0,0.368256914903997
18165.0,26633.0,0.4054487685295656
18175.0,26639.0,0.44274346242851714
18185.0,26641.0,0.47910912517532905
18195.0,26646.0,0.5132541242849517
18205.0,26648.0,0.5436560117368495
18215.0,26647.0,0.5686105828615453
18225.0,26644.0,0.5862996351869736
18236.0,26657.0,0.5948766310917853
18245.0,26657.0,0.5925690063918435
18255.0,26659.0,0.5777929447159779
18265.0,26650.0,0.5492731959687438
18275.0,26656.0,0.5061602590606731
18285.0,26656.0,0.4481390020340303
18295.0,26657.0,0.3755228212856248
18305.0,26665.0,0.2893249283297661
18315.0,26652.0,0.19129567949218593
18325.0,26655.0,0.08391430361988801
18336.0,26637.0,-0.02967411822438696
18345.0,26631.0,-0.1457806134397802
18355.0,26604.0,-0.2603513591121977
18365.0,26581.0,-0.3691950041821843
18375.0,26556.0,-0.46824126749998685
18385.0,26542.0,-0.5538058409855963
18395.0,26535.0,-0.6228325202194208
18405.0,26535.0,-0.6730859007922493
18415.0,26535.0,-0.7032759521010196
18425.0,26546.0,-0.7131057783300142
18436.0,26554.0,-0.7032430399213714
18446.0,26576.0,-0.6752233029940694
18455.0,26582.0,-0.6313003863017115
18465.0,26591.0,-0.5742636221762913
18475.0,26592.0,-0.5072426346677779
18485.0,26604.0,-0.43351634383401705
18495.0,26602.0,-0.35633738564959405
18505.0,26614.0,-0.2787790126149216
18515.0,26620.0,-0.2036091611009233
18525.0,26615.0,-0.13319496142902315
18536.0,26621.0,-0.06943937392602778
18546.0,26617.0,-0.013748655646676688
18556.0,26629.0,0.03297386352145833
18565.0,26630.0,0.07031307950963582
18575.0,26631.0,0.09831013617830482
18585.0,26634.0,0.11741494465764703
18595.0,26626.0,0.12842499808657945
18605.0,26633.0,0.13241386144652292
18615.0,26633.0,0.1306540567065248
18625.0,26631.0,0.12453872258795436
18636.0,26623.0,0.11550507633039234
18646.0,26625.0,0.10496271400247116
18656.0,26625.0,0.09423125542041992
18665.0,26631.0,0.0844918585613483
18675.0,26631.0,0.07675437475228651
18685.0,26621.0,0.07183869688161369
18695.0,26629.0,0.07036815711799513
18705.0,26634.0,0.07277432851673966
18715.0,26640.0,0.07931255700788123
18725.0,26640.0,0.0900845471220661
18736.0,26637.0,0.1050618567073278
18746.0,26638.0,0.1241053351239925
18756.0,26644.0,0.14697893976843762
18766.0,26646.0,0.17335848709253407
18775.0,26651.0,0.20283540939637149
18785.0,26652.0,0.2349142692501717
18795.0,26637.0,0.2690030183463899
18805.0,26650.0,0.30439778425793435
18815.0,26658.0,0.3402674612452796
18825.0,26653.0,0.3756434258459321
18836.0,26660.0,0.4094161702232209
18846.0,26646.0,0.44033878018218325
18856.0,26654.0,0.467039291314056
18866.0,26658.0,0.48804667501725063
18875.0,26662.0,0.501834745677249
18885.0,26666.0,0.5068843279477463
18895.0,26656.0,0.5017599149183948
18905.0,26653.0,0.485196198110367
18915.0,26662.0,0.4561919319848266
18925.0,26665.0,0.4141095809771672
18936.0,26669.0,0.3587758750751946
18946.0,26666.0,0.290573013289148
18956.0,26666.0,0.21050755481807207
18966.0,26662.0,0.120245094193711
18976.0,26661.0,0.022101366476824775
18985.0,26654.0,-0.0810172219486886
18995.0,26626.0,-0.18572789978029106
19005.0,26605.0,-0.2883392695771928
19015.0,26595.0,-0.38506152938794175
19025.0,26576.0,-0.47223924585940313
19036.0,26568.0,-0.5465836566564298
19046.0,26552.0,-0.6053833741238156
19056.0,26542.0,-0.6466749687507164
19066.0,26555.0,-0.6693571639764186
19076.0,26563.0,-0.6732369250425245
19086.0,26579.0,-0.6590048605207566
19095.0,26581.0,-0.6281485052960379
19105.0,26589.0,-0.5828193175167985
19115.0,26603.0,-0.5256702465589004
19125.0,26605.0,-0.4596786949253467
19136.0,26612.0,-0.3879679666394051
19146.0,26627.0,-0.3136387226398331
19156.0,26623.0,-0.2396199465232473
19166.0,26620.0,-0.1685467622860347
19176.0,26626.0,-0.10266882269781823
19186.0,26633.0,-0.043788009985207314
19195.0,26638.0,0.006778186925102586
19205.0,26635.0,0.048209695949665364
19215.0,26632.0,0.08017393963622811
19225.0,26638.0,0.10279524233494879
19236.0,26639.0,0.11660828127727646
19246.0,26639.0,0.12250030704039581
19256.0,26634.0,0.12164512205352404
19266.0,26631.0,0.11543136264529999
19276.0,26638.0,0.10538894351991339
19286.0,26633.0,0.0931180337276935
19295.0,26643.0,0.08022310700198258
19305.0,26633.0,0.06825194351142085
19315.0,26628.0,0.05863839194194594
19325.0,26627.0,0.05264936501185565
19336.0,26627.0,0.05133956345099664
19346.0,26633.0,0.055518537686039156
19356.0,26644.0,0.06573229523723957
19366.0,26636.0,0.0822574025711215
19376.0,26635.0,0.10510277320745826
19386.0,26651.0,0.1340153698487732
19396.0,26648.0,0.16848848526289167
19405.0,26646.0,0.20777125128590523
19415.0,26651.0,0.25087735118645116
19425.0,26645.0,0.2965929366204563
19436.0,26655.0,0.34348669216303185
19446.0,26654.0,0.38992593340778586
19456.0,26664.0,0.43410150025031197
19466.0,26658.0,0.47406221803271775
19476.0,26653.0,0.5077586435224902
19486.0,26656.0,0.53309715773082
19496.0,26654.0,0.5480078850348019
19505.0,26662.0,0.5505301007695467
19515.0,26668.0,0.538915469453416
19525.0,26658.0,0.511744530897014
19536.0,26661.0,0.4680484353680805
19546.0,26659.0,0.40742772439904523
19556.0,26671.0,0.3301607115014362
19566.0,26669.0,0.2372920625058204
19576.0,26669.0,0.13068804329484676
19586.0,26656.0,0.013042891050057856
19596.0,26653.0,-0.11217643997485388
19606.0,26632.0,-0.24085369011937413
19615.0,26611.0,-0.3684142441400077
19626.0,26583.0,-0.4900750693554453
19636.0,26548.0,-0.6011356314511871
19646.0,26535.0,-0.6972821985867941
19656.0,26529.0,-0.7748721269502992
19666.0,26531.0,-0.8311668647086089
19676.0,26517.0,-0.8644922944226916
19686.0,26529.0,-0.874316264094352
19696.0,26541.0,-0.8612407860792999
19706.0,26559.0,-0.8269128745056477
19715.0,26579.0,-0.7738667603347928
19726.0,26586.0,-0.7053189314097972
19736.0,26582.0,-0.6249412287180969
19746.0,26591.0,-0.5366337538385619
19756.0,26604.0,-0.4443112540478194
19766.0,26603.0,-0.35171037132266914
19776.0,26619.0,-0.26222361754476115
19786.0,26609.0,-0.1787658054252306
19796.0,26629.0,-0.10367686864572516
19806.0,26614.0,-0.0386622788426323
19815.0,26626.0,0.015230140012279424
19826.0,26625.0,0.05760026408844245
19836.0,26622.0,0.08865726238532275
19846.0,26624.0,0.10915780655472683
19856.0,26617.0,0.12032637557949014
19866.0,26628.0,0.12376390401382094
19876.0,26629.0,0.12135050951339714
19886.0,26619.0,0.11514551948401623
19896.0,26620.0,0.10728605692870624
19906.0,26617.0,0.09988658491757237
19915.0,26624.0,0.09494397025233418
19926.0,26624.0,0.09425207344234635
19936.0,26613.0,0.09932720063060796
19946.0,26618.0,0.11134475575188815
19956.0,26623.0,0.131089146876996
19966.0,26628.0,0.15891986935232505
19976.0,26634.0,0.19475418087426605
19986.0,26634.0,0.23806340753914979
19996.0,26631.0,0.28787908566482706
20006.0,26634.0,0.3428073013290259
20016.0,26641.0,0.40105274094703713
20026.0,26645.0,0.46045522624177154
20036.0,26636.0,0.5185402108212195
20046.0,26642.0,0.5725838273184123
20056.0,26648.0,0.6196943417411874
20066.0,26648.0,0.6569123940114449
20076.0,26651.0,0.681329941094907
20086.0,26645.0,0.6902248754689685
20096.0,26652.0,0.6812073589809141
20106.0,26653.0,0.6523736271090929
20117.0,26657.0,0.602461005048928
20126.0,26657.0,0.5309942342121823
20136.0,26656.0,0.43841008619170696
20146.0,26656.0,0.32614603574307727
20156.0,26655.0,0.19667900651180248
20166.0,26643.0,0.05350111492437307
20176.0,26628.0,-0.09897835967087137
20186.0,26598.0,-0.2556099639340622
20196.0,26569.0,-0.41075558659013767
20206.0,26539.0,-0.5585981563107058
20217.0,26521.0,-0.6934826067461357
20226.0,26503.0,-0.8102558070343273
20236.0,26487.0,-0.9045742028512649
20246.0,26480.0,-0.9731529631443144
20256.0,26488.0,-1.0139367464541342
20266.0,26494.0,-1.02618013454128
20276.0,26507.0,-1.010436197778394
20286.0,26517.0,-0.9684621815027964
20296.0,26522.0,-0.9030583873786422
20307.0,26545.0,-0.8178589938325523
20317.0,26544.0,-0.7170935550604401
20326.0,26560.0,-0.6053370721951001
20336.0,26569.0,-0.48726476866302704
20346.0,26568.0,-0.3674247320510293
20356.0,26577.0,-0.250037954178789
20366.0,26582.0,-0.13883115218945427
20376.0,26597.0,-0.036904288579659515
20386.0,26599.0,0.05336599407478776
20396.0,26597.0,0.13038477009576757
20407.0,26597.0,0.1933576561312462
20417.0,26603.0,0.24227237554406814
20426.0,26614.0,0.27784840023890656
20436.0,26603.0,0.30145921099200573
20446.0,26600.0,0.3150295468636343
20456.0,26598.0,0.3209111328561838
20466.0,26601.0,0.32174406181337634
20476.0,26608.0,0.3203121875637913
20486.0,26594.0,0.31939811756371284
20497.0,26588.0,0.3216409249847497
20507.0,26593.0,0.32940126067401976
20516.0,26602.0,0.3446414386228837
20526.0,26600.0,0.3688267415765014
20536.0,26599.0,0.4028493340967666
20546.0,26597.0,0.44697376731971833
20556.0,26608.0,0.5008048220944593
20566.0,26611.0,0.5632800982394767
20576.0,26617.0,0.632688292929668
20587.0,26619.0,0.7067114347079438
20597.0,26623.0,0.7824884197903997
20607.0,26614.0,0.8566983474861318
20616.0,26627.0,0.9256642400511914
20626.0,26632.0,0.9854791028139981
20636.0,26621.0,1.0321550070541525
20646.0,26633.0,1.06179309913381
20656.0,26632.0,1.0707710413046343
20666.0,26637.0,1.0559432131464654
20676.0,26637.0,1.014845765302291
20687.0,26636.0,0.9458949981732178
20697.0,26642.0,0.8485654610039268
20707.0,26640.0,0.7235327364942195
20716.0,26636.0,0.572764198872414
20726.0,26631.0,0.3995403007272089
20736.0,26610.0,0.20839093106760212
20746.0,26584.0,0.004936877512724602
20756.0,26546.0,-0.2043641678859069
20766.0,26503.0,-0.4125546200272705
20777.0,26475.0,-0.6125705915022539
20787.0,26433.0,-0.7976548584494039
20797.0,26422.0,-0.9617476444750833
20807.0,26421.0,-1.0998165911793265
20816.0,26416.0,-1.2080974451991067
20826.0,26418.0,-1.2842321255813247
20836.0,26424.0,-1.3273048606190587
20846.0,26436.0,-1.3377860271477695
20856.0,26445.0,-1.3173990403055063
20867.0,26456.0,-1.2689301711138827
20877.0,26460.0,-1.1960034389410021
20887.0,26463.0,-1.10284140435521
20897.0,26468.0,-0.994028150547332
20907.0,26483.0,-0.8742850954413579
20916.0,26490.0,-0.7482665537960261
20926.0,26484.0,-0.6203809685781076
20936.0,26494.0,-0.4946422330792746
20946.0,26500.0,-0.3745513951810426
20956.0,26516.0,-0.2630056814158647
20967.0,26519.0,-0.16223275806584705
20977.0,26522.0,-0.07375125200781063
20987.0,26533.0,0.0016404833956193635
20997.0,26526.0,0.06384699707000695
21006.0,26534.0,0.11343141361133004
21016.0,26534.0,0.15154731060604454
21026.0,26531.0,0.1798509682601247
21036.0,26540.0,0.20039839641462015
21046.0,26530.0,0.21553129522127748
21057.0,26534.0,0.22775593498144364
21067.0,26532.0,0.23961926076085313
21077.0,26528.0,0.25358718048711665
21087.0,26532.0,0.27193023683698775
21097.0,26532.0,0.29662150675810195
21106.0,26541.0,0.3292504870972963
21116.0,26540.0,0.3709546203982694
21126.0,26542.0,0.422368023763319
21136.0,26543.0,0.4835866159465627
21147.0,26558.0,0.5541500176889852
21157.0,26568.0,0.6330406984774087
21167.0,26566.0,0.7186983207229967
21177.0,26562.0,0.8090451579530312
21187.0,26574.0,0.9015207521973135
21197.0,26579.0,0.9931284800032639
21206.0,26583.0,1.0804978603162576
21216.0,26574.0,1.1599642815737397
21226.0,26579.0,1.2276672803215973
21237.0,26578.0,1.2796707204196662
21247.0,26588.0,1.3121091210145774
21257.0,26597.0,1.3213609738689944
21267.0,26588.0,1.3042435947932831
21277.0,26595.0,1.2582187692503983
21287.0,26592.0,1.1815965869534406
21296.0,26597.0,1.0737245603190344
21306.0,26599.0,0.9351472915070245
21316.0,26597.0,0.7677187313653049
21326.0,26598.0,0.5746466504199891
21337.0,26568.0,0.36044918920728036
21347.0,26540.0,0.1308084482492759
21357.0,26504.0,-0.10768232340659725
21367.0,26439.0,-0.3478650897168676
21377.0,26403.0,-0.5824270098575375
21387.0,26385.0,-0.804330140229807
21396.0,26370.0,-1.0072124739215726
21406.0,26352.0,-1.1857209859310378
21416.0,26349.0,-1.3357532120532765
21427.0,26350.0,-1.454597013651095
21437.0,26356.0,-1.5409677575379797
21447.0,26358.0,-1.5949512432728998
21457.0,26372.0,-1.6178685844931484
21467.0,26376.0,-1.612083974180905
21477.0,26379.0,-1.5807779961753845
21487.0,26380.0,-1.5277079556751156
21496.0,26396.0,-1.4569725570677055
21506.0,26392.0,-1.372793577093074
21517.0,26392.0,-1.2793239930128482
21527.0,26393.0,-1.1804883884422142
21537.0,26405.0,-1.0798561350533151
21547.0,26411.0,-0.980544250237158
21557.0,26407.0,-0.8851472318215529
21567.0,26419.0,-0.7956923828921262
21577.0,26420.0,-0.7136182400211274
21586.0,26438.0,-0.6397727411798214
21596.0,26442.0,-0.5744293948537375
21607.0,26434.0,-0.5173225666007693
21617.0,26458.0,-0.46770361103299934
21627.0,26447.0,-0.4244176884321507
21637.0,26449.0,-0.3859996423209482
21647.0,26445.0,-0.35078614646248224
21657.0,26442.0,-0.31703818897261477
21667.0,26447.0,-0.2830645261735014
21677.0,26445.0,-0.2473360063594667
21686.0,26453.0,-0.20858252607217556
21697.0,26451.0,-0.16586716489159048
21707.0,26450.0,-0.11863427275444387
21717.0,26454.0,-0.0667290088201974
21727.0,26469.0,-0.010385806984068092
21737.0,26477.0,0.04981484576147391
21747.0,26485.0,0.11301708722741759
21757.0,26488.0,0.1781790308909138
21767.0,26501.0,0.2441709663356615
21777.0,26503.0,0.30987397509201414
21786.0,26513.0,0.3742716565769286
21797.0,26518.0,0.43652815459724165
21807.0,26509.0,0.49604674281664213
21817.0,26518.0,0.5525058834388862
21827.0,26530.0,0.6058733165673674
21837.0,26533.0,0.6564001312352383
21847.0,26527.0,0.704594716390341
21857.0,26530.0,0.7511755303376989
21867.0,26533.0,0.7970048264236166
21876.0,26545.0,0.8430089490656131
21887.0,26542.0,0.8900904218191545
21897.0,26538.0,0.93903471978071
21907.0,26549.0,0.990414694275897
21917.0,26551.0,1.044497919126946
21927.0,26556.0,1.1011628171260066
21937.0,26553.0,1.1598277404832584
21947.0,26553.0,1.2193966146493254
21957.0,26552.0,1.278226575904274
21967.0,26560.0,1.334124962412865
21977.0,26559.0,1.38438263083119
21987.0,26566.0,1.4258476940995009
21997.0,26565.0,1.4550402146949395
22007.0,26569.0,1.4683055996147893
22017.0,26573.0,1.4620022586941388
22027.0,26576.0,1.4327166110558303
22037.0,26577.0,1.3774953592802512
22047.0,26576.0,1.2940818238831484
22057.0,26578.0,1.1811410410133392
22067.0,26584.0,1.0384569261782182
22077.0,26585.0,0.8670827531516339
22087.0,26571.0,0.66942374634083
22097.0,26566.0,0.44923069011996986
22107.0,26523.0,0.21148876461453198
22117.0,26489.0,-0.037803469166933404
22127.0,26430.0,-0.29195459040547933
22137.0,26375.0,-0.5439717302104455
22147.0,26346.0,-0.7869776700217854
22158.0,26330.0,-1.0146003676745072
22167.0,26313.0,-1.2212886561058185
22177.0,26306.0,-1.4025288532908036
22187.0,26302.0,-1.5549606278802772
22197.0,26309.0,-1.6764056765783173
22207.0,26326.0,-1.7658282524448141
22217.0,26325.0,-1.8232467843045341
22227.0,26327.0,-1.8496140664915572
22237.0,26334.0,-1.8466808303725466
22247.0,26339.0,-1.8168542489871764
22258.0,26342.0,-1.7630593339145544
22267.0,26350.0,-1.6886076582168017
22277.0,26344.0,-1.5970749161736812
22287.0,26354.0,-1.492186514767085
22297.0,26360.0,-1.3777084505100512
22307.0,26371.0,-1.2573401000279483
22317.0,26385.0,-1.1346072304473551
22327.0,26391.0,-1.012756481373909
22337.0,26406.0,-0.8946548855180305
22348.0,26417.0,-0.7826989805321031
22357.0,26437.0,-0.678738673097297
22367.0,26442.0,-0.584022439575577
22377.0,26446.0,-0.4991716936224991
22387.0,26460.0,-0.4241908459705373
22397.0,26450.0,-0.35851581246524766
22407.0,26452.0,-0.30109948671110126
22417.0,26446.0,-0.25052815367031145
22427.0,26443.0,-0.2051579040686292
22438.0,26452.0,-0.163256948225063
22448.0,26446.0,-0.1231400594017874
22457.0,26460.0,-0.08328451312808673
22467.0,26462.0,-0.04242099333037757
22477.0,26458.0,0.0004033625023921025
22487.0,26469.0,0.04579039933133745
22497.0,26479.0,0.09398493396906282
22507.0,26481.0,0.14489616419544232
22517.0,26499.0,0.19814216493810716
22528.0,26490.0,0.2531102587757345
22538.0,26498.0,0.3090257229779475
22548.0,26511.0,0.36502329827511915
22557.0,26516.0,0.4202177288452261
22567.0,26511.0,0.4737688776481878
22577.0,26512.0,0.524936448752968
22587.0,26518.0,0.5731223447144169
22597.0,26522.0,0.6179024447592446
22607.0,26528.0,0.6590498887558931
22617.0,26525.0,0.696549779078235
22628.0,26530.0,0.7306040917526022
22638.0,26535.0,0.7616263984321763
22648.0,26537.0,0.7902268008608374
22657.0,26542.0,0.8171869519000875
22667.0,26543.0,0.8434241909036205
22677.0,26534.0,0.8699441451284065
22687.0,26547.0,0.8977830538421633
22697.0,26550.0,0.927943181581584
22707.0,26550.0,0.9613244993935642
22718.0,26552.0,0.9986538339166543
22728.0,26549.0,1.0404124707315738
22738.0,26560.0,1.0867653518800453
22748.0,26558.0,1.1374965457985085
22757.0,26562.0,1.1919551606019287
22767.0,26567.0,1.24901488236272
22777.0,26557.0,1.3070503805785234
22787.0,26569.0,1.3639348534238205
22797.0,26568.0,1.4170639652864307
22807.0,26570.0,1.4634108237922183
22818.0,26576.0,1.4996142315727599
22828.0,26567.0,1.5221000455283158
22838.0,26570.0,1.5272342807553543
22848.0,26575.0,1.51150604761119
22858.0,26580.0,1.4717365990458906
22867.0,26587.0,1.4053060131396873
22877.0,26580.0,1.310382866170776
22887.0,26581.0,1.1861382811170231
22897.0,26586.0,1.0329251819367888
22907.0,26582.0,0.8524039871734728
22918.0,26589.0,0.647594982967888
22928.0,26556.0,0.42283681227471587
22938.0,26518.0,0.183634687170348
22948.0,26474.0,-0.06360495149028778
22958.0,26416.0,-0.3119363028515554
22967.0,26380.0,-0.5542956283103706
22977.0,26350.0,-0.7839327183576702
22987.0,26326.0,-0.9948015105161421
22997.0,26322.0,-1.1818694670279164
23007.0,26316.0,-1.3413239095159266
23018.0,26323.0,-1.4706727864742994
23028.0,26333.0,-1.568750867226424
23038.0,26335.0,-1.6356483247141624
23048.0,26340.0,-1.6725795365249818
23058.0,26352.0,-1.6817088460409537
23067.0,26357.0,-1.6659490004113213
23077.0,26361.0,-1.6287477846257596
23087.0,26359.0,-1.5738778230131054
23097.0,26374.0,-1.5052418973891224
23108.0,26366.0,-1.42670219969289
23118.0,26373.0,-1.3419385392659489
23128.0,26365.0,-1.254337124616672
23138.0,26377.0,-1.1669072946833805
23148.0,26381.0,-1.0822204702933025
23157.0,26392.0,-1.0023659464472876
23167.0,26401.0,-0.9289213005182959
23177.0,26396.0,-0.8629383469099708
23187.0,26413.0,-0.804946452012499
23198.0,26411.0,-0.7549739288834074
23208.0,26416.0,-0.7125873640358739
23218.0,26416.0,-0.6769485728157855
23228.0,26409.0,-0.6468877111269897
23238.0,26424.0,-0.6209886831573654
23248.0,26416.0,-0.59768150012853
23257.0,26425.0,-0.5753370444315942
23267.0,26419.0,-0.5523613095299138
23277.0,26408.0,-0.5272861268355429
23287.0,26424.0,-0.4988512092307868
23298.0,26421.0,-0.4660704994591375
23308.0,26423.0,-0.4282772589360708
23318.0,26425.0,-0.385145791011977
23328.0,26436.0,-0.3366894922012669
23338.0,26440.0,-0.2832356547874835
23348.0,26455.0,-0.22537974536859431
23357.0,26463.0,-0.16392525808893577
23367.0,26461.0,-0.09981769172163231
23377.0,26465.0,-0.034081074037729316
23388.0,26465.0,0.03223794634306406
23398.0,26474.0,0.09811790906011553
23408.0,26479.0,0.16260386288725942
23418.0,26475.0,0.2248431544245979
23428.0,26483.0,0.2841158259786202
23438.0,26480.0,0.3398606155773299
23447.0,26503.0,0.3916985344522212
23457.0,26507.0,0.43945430510194206
23467.0,26495.0,0.4831719395495306
23478.0,26506.0,0.5231191161634028
23488.0,26507.0,0.5597784075089843
23498.0,26515.0,0.59382716288903
23508.0,26518.0,0.6261073957361724
23518.0,26510.0,0.6575849077103544
23528.0,26515.0,0.6892973340237133
23538.0,26529.0,0.7222934670256803
23547.0,26528.0,0.757567117192534
23557.0,26529.0,0.7959863864049622
23568.0,26522.0,0.8382177614837871
23578.0,26528.0,0.884647284767537
23588.0,26532.0,0.9353052608471457
23598.0,26535.0,0.9898020358589141
23608.0,26540.0,1.0472802788218072
23618.0,26538.0,1.1063869775332864
23628.0,26543.0,1.165267858977744
23638.0,26545.0,1.2215874720835356
23647.0,26547.0,1.2725782145918088
23658.0,26543.0,1.3151206947638274
23668.0,26551.0,1.3458568507165733
23678.0,26557.0,1.3613361148719405
23688.0,26551.0,1.3581921332374942
23698.0,26566.0,1.3333435186439397
23708.0,26559.0,1.2842087422722286
23718.0,26569.0,1.2089225619762412
23728.0,26570.0,1.1065386263752477
23737.0,26573.0,0.9772003918335453
23748.0,26567.0,0.822260734501382
23758.0,26554.0,0.6443308762641572
23768.0,26545.0,0.44724299012433444
23778.0,26514.0,0.23591769077733393
23788.0,26478.0,0.016136473993214707
23798.0,26434.0,-0.20576934562065005
23808.0,26395.0,-0.4232877043534778
23818.0,26368.0,-0.6301150620293491
23828.0,26358.0,-0.8205230647328428
23837.0,26349.0,-0.9896648984344734
23848.0,26334.0,-1.133796569925044
23858.0,26345.0,-1.25040290093397
23868.0,26351.0,-1.3382293964284013
23878.0,26358.0,-1.3972293594827727
23888.0,26368.0,-1.4284422419375686
23898.0,26366.0,-1.4338237933383717
23908.0,26375.0,-1.416049573098627
23918.0,26371.0,-1.378310631939745
23927.0,26387.0,-1.3241155752844693
23938.0,26381.0,-1.2571092814216456
23948.0,26381.0,-1.1809156782319303
23958.0,26383.0,-1.0990083151774372
23968.0,26383.0,-1.0146074788088613
23978.0,26399.0,-0.9305989859597971
23988.0,26402.0,-0.8494699466033224
23998.0,26403.0,-0.7732596237400159
24008.0,26409.0,-0.7035254971367827
24018.0,26425.0,-0.6413241062312174
24028.0,26434.0,-0.5872061266639287
24038.0,26427.0,-0.5412277243017795
24048.0,26430.0,-0.5029819267639586
24058.0,26436.0,-0.4716509246004486
24068.0,26439.0,-0.4460760820197406
24078.0,26439.0,-0.4248416381593491
24088.0,26430.0,-0.40636917389317007
24098.0,26433.0,-0.3890188999677353
24108.0,26428.0,-0.3711907690929144
24118.0,26443.0,-0.3514167794874648
24128.0,26442.0,-0.32843782271181066
24138.0,26435.0,-0.3012625536399977
24148.0,26445.0,-0.26920808269488034
24158.0,26447.0,-0.2319214269703008
24168.0,26455.0,-0.18938008817304244
24178.0,26461.0,-0.14187227927237708
24188.0,26461.0,-0.08996001590301578
24198.0,26478.0,-0.034429337188821504
24209.0,26482.0,0.023767813450953152
24218.0,26483.0,0.0835746086125239
24228.0,26486.0,0.1438874588114211
24238.0,26483.0,0.20360775365750755
24248.0,26497.0,0.26168753044049703
24258.0,26503.0,0.31717108959133755
24268.0,26505.0,0.36923284608472484
24278.0,26506.0,0.4172091105582335
24288.0,26500.0,0.4606216766163621
24298.0,26515.0,0.4991941054654559
24309.0,26520.0,0.5328635965626978
24318.0,26529.0,0.561789312918663
24328.0,26514.0,0.5863540870526673
24338.0,26523.0,0.6071557965315647
24348.0,26527.0,0.6249883347198898
24358.0,26533.0,0.6408147877193068
24368.0,26537.0,0.65573371345315
24378.0,26535.0,0.6709363637458763
24388.0,26536.0,0.6876523028158208
24399.0,26532.0,0.7070833059553535
24408.0,26541.0,0.7303285100985678
24418.0,26543.0,0.758305337235063
24428.0,26535.0,0.7916701434364838
24438.0,26543.0,0.8307420125327064
24448.0,26543.0,0.8754343979062703
24458.0,26550.0,0.9252004860099331
24468.0,26556.0,0.9789970280666588
24478.0,26540.0,1.0352694505872593
24489.0,26567.0,1.0919609161782207
24499.0,26565.0,1.146548758595143
24508.0,26564.0,1.1961099443205
24518.0,26561.0,1.2374140373836306
24528.0,26557.0,1.2670424178540383
24538.0,26576.0,1.28153526356911
24548.0,26571.0,1.2775670710003024
24558.0,26587.0,1.252145680446521
24568.0,26576.0,1.2028231692120392
24579.0,26582.0,1.1279036624310181
24589.0,26586.0,1.0266330190555024
24598.0,26595.0,0.899355321463088
24608.0,26595.0,0.74761864687371
24618.0,26578.0,0.5742096520547766
24628.0,26560.0,0.38309825846450135
24638.0,26524.0,0.17928283567226488
24648.0,26491.0,-0.03145965587427432
24658.0,26453.0,-0.2428994049554475
24669.0,26422.0,-0.4487242973084294
24679.0,26400.0,-0.6429174709760207
24689.0,26381.0,-0.8201038442766324
24698.0,26380.0,-0.9758334554717197
24708.0,26378.0,-1.1067797964049415
24718.0,26370.0,-1.2108436815521912
24728.0,26391.0,-1.287164357671583
24738.0,26392.0,-1.3360479323407752
24748.0,26403.0,-1.3588299915110362
24759.0,26401.0,-1.3576940967828834
24769.0,26411.0,-1.335468095306984
24779.0,26413.0,-1.2954164567457176
24789.0,26419.0,-1.2410426262971213
24798.0,26427.0,-1.1759122041803354
24808.0,26416.0,-1.1035048815902295
24818.0,26418.0,-1.027099045485108
24828.0,26419.0,-0.9496872024966224
24838.0,26422.0,-0.873915164885539
24849.0,26438.0,-0.8020366625921374
24859.0,26433.0,-0.7358778176905564
24869.0,26452.0,-0.6768098545283545
24879.0,26456.0,-0.6257312239382381
24888.0,26462.0,-0.5830621015339332
24898.0,26465.0,-0.5487553748625169
24908.0,26458.0,-0.5223275176469627
24918.0,26465.0,-0.5029096444348438
24928.0,26470.0,-0.4893156481666529
24938.0,26466.0,-0.48012332046835093
24949.0,26458.0,-0.4737652893364015
24959.0,26456.0,-0.46862590761764816
24969.0,26456.0,-0.4631370004573705
24979.0,26465.0,-0.45586349301953794
24988.0,26470.0,-0.44557236276000917
24998.0,26459.0,-0.43128326086660446
25008.0,26469.0,-0.4123020368406071
25018.0,26464.0,-0.38823744670884797
25028.0,26480.0,-0.3589997448446427
25039.0,26488.0,-0.3247812776486538
25049.0,26474.0,-0.286022838446856
25059.0,26486.0,-0.24337121749453874
25069.0,26488.0,-0.19763091861341053
25078.0,26501.0,-0.14971027123318126
25088.0,26505.0,-0.10056347278872368
25098.0,26496.0,-0.05113318995469637
25108.0,26511.0,-0.0022984109484142858
25118.0,26512.0,0.04517063479410032
25129.0,26515.0,0.09065031758846372
25139.0,26515.0,0.13369329699728782
25149.0,26519.0,0.17404905094583503
25159.0,26527.0,0.21167554104988645
25169.0,26533.0,0.24674247287990797
25178.0,26535.0,0.27962482626005075
25188.0,26530.0,0.31088391128941045
25198.0,26535.0,0.34123446721134554
25208.0,26539.0,0.371499413759078
25219.0,26542.0,0.4025555644886261
25229.0,26549.0,0.43527266571533907
25239.0,26543.0,0.4704465722248491
25249.0,26547.0,0.5087274719178727
25259.0,26552.0,0.5505459363536395
25268.0,26553.0,0.5960412243891218
25278.0,26553.0,0.6449962125660026
25288.0,26544.0,0.6967831019729774
25298.0,26560.0,0.7503255429685897
25309.0,26557.0,0.804084201835293
25319.0,26562.0,0.8560711714015774
25329.0,26560.0,0.9038953227464498
25339.0,26556.0,0.9448392341001517
25349.0,26569.0,0.9759688247679882
25359.0,26575.0,0.9942760674123022
25368.0,26575.0,0.9968510169002489
25378.0,26578.0,0.9810739769038068
25388.0,26574.0,0.9448158794805792
25399.0,26578.0,0.8866352217632552
25409.0,26587.0,0.8059601326537468
25419.0,26592.0,0.7032419740410765
25429.0,26584.0,0.5800628981555738
25439.0,26582.0,0.43917768052796574
25449.0,26572.0,0.2844729199890487
25458.0,26544.0,0.12083320479764906
25468.0,26508.0,-0.04608725150348753
25478.0,26469.0,-0.2101763468137361
25489.0,26447.0,-0.3652328938484655
25499.0,26426.0,-0.5053550767881184
25509.0,26412.0,-0.6253094369747836
25519.0,26408.0,-0.720847626721342
25529.0,26398.0,-0.7889476485770084
25539.0,26401.0,-0.8279654720131482
25549.0,26412.0,-0.8376908581690535
25558.0,26427.0,-0.8193089308574741
25568.0,26433.0,-0.7752776110549091
25579.0,26442.0,-0.7091383947421261
25589.0,26443.0,-0.625280479754804
25599.0,26457.0,-0.5286758907452452
25609.0,26464.0,-0.42459966849508035
