timestamp_ms,ir_value,ir_filtered
6900.0,26296.0,-0.1377928284497998
6910.0,26303.0,-0.2807199880927814
6921.0,26296.0,-0.42355945777629483
6931.0,26286.0,-0.5651746536525085
6941.0,26284.0,-0.7041083295670689
6951.0,26279.0,-0.8385026890327514
6961.0,26253.0,-0.9660846533862122
6970.0,26226.0,-1.084226854860167
6980.0,26210.0,-1.1900818399762714
6990.0,26178.0,-1.2807726044366787
7000.0,26166.0,-1.353612766251176
7010.0,26163.0,-1.4063262113611936
7020.0,26160.0,-1.4372384972441459
7030.0,26163.0,-1.4454202673638736
7041.0,26164.0,-1.4307729477435567
7051.0,26162.0,-1.3940544077847394
7061.0,26182.0,-1.3368461008420582
7071.0,26185.0,-1.2614659910321309
7081.0,26202.0,-1.1708356891878744
7090.0,26214.0,-1.0683147789228031
7100.0,26225.0,-0.9575180670319589
7110.0,26224.0,-0.8421318219752246
7120.0,26240.0,-0.7257426995412057
7130.0,26236.0,-0.6116884946280646
7140.0,26247.0,-0.502935506241097
7151.0,26254.0,-0.40198456408017635
7161.0,26255.0,-0.310806382673962
7171.0,26260.0,-0.2308063800594659
7181.0,26258.0,-0.16281817051376066
7191.0,26264.0,-0.10712300169016044
7200.0,26270.0,-0.06349093647728184
7210.0,26271.0,-0.0312400876838422
7220.0,26259.0,-0.009311733848057493
7230.0,26260.0,0.0036414263151080912
7240.0,26255.0,0.00916018539929599
7250.0,26260.0,0.008886076788040112
7261.0,26259.0,0.004479001225935653
7271.0,26264.0,-0.002450732225002097
7281.0,26249.0,-0.010395605708457769
7291.0,26260.0,-0.017990109785184217
7301.0,26256.0,-0.02403575499931814
7311.0,26264.0,-0.027511710089395472
7320.0,26265.0,-0.027573553391663595
7330.0,26260.0,-0.023545466791502385
7340.0,26256.0,-0.014911354971054598
7350.0,26267.0,-0.0013076838950689363
7361.0,26262.0,0.01748170985090173
7371.0,26270.0,0.04152826966117853
7381.0,26268.0,0.07075660286245763
7391.0,26256.0,0.10493552522582769
7401.0,26264.0,0.1436630806961645
7411.0,26267.0,0.18635021260230789
7421.0,26273.0,0.23220883865301978
7430.0,26280.0,0.2802469557328991
7440.0,26278.0,0.32926949862465277
7450.0,26269.0,0.3778827240957527
7460.0,26277.0,0.42450265492235845
7471.0,26269.0,0.4673723232666616
7481.0,26281.0,0.5045943630615157
7491.0,26286.0,0.5341834074609316
7501.0,26278.0,0.5541384574340203
7511.0,26273.0,0.5625321575084131
7521.0,26290.0,0.5576142317382253
7531.0,26285.0,0.5379274876406749
7541.0,26290.0,0.5024320309904172
7550.0,26289.0,0.45062843362960825
7560.0,26296.0,0.38266839007929215
7570.0,26292.0,0.2994417133913486
7581.0,26299.0,0.20262883218866343
7591.0,26290.0,0.09470787461941087
7601.0,26276.0,-0.021094166766198748
7611.0,26259.0,-0.14091430435820568
7621.0,26229.0,-0.26043213323035
7631.0,26211.0,-0.375104952046411
7641.0,26196.0,-0.48043862687637995
7651.0,26187.0,-0.5722667613674579
7660.0,26167.0,-0.6470114430321307
7670.0,26159.0,-0.7019030878160587
7681.0,26165.0,-0.735140434585938
7691.0,26177.0,-0.7459762140733227
7701.0,26182.0,-0.7347231656386379
7711.0,26197.0,-0.7026867516663549
7721.0,26200.0,-0.6520392291363322
7731.0,26209.0,-0.5856525319020913
7741.0,26216.0,-0.5069064740501278
7751.0,26224.0,-0.4194863194609503
7761.0,26236.0,-0.32718157273272896
7770.0,26236.0,-0.23369662465004978
7780.0,26246.0,-0.14248263318615972
7791.0,26243.0,-0.056597519902272325
7801.0,26252.0,0.021402504800773485
7811.0,26253.0,0.089539490554457
7821.0,26267.0,0.14645933089532998
7831.0,26267.0,0.19144664581839405
7841.0,26263.0,0.22440774796487836
7851.0,26254.0,0.24582129190818905
7861.0,26262.0,0.2566606926876908
7871.0,26257.0,0.2582970145881193
7880.0,26257.0,0.2523915648090354
7890.0,26257.0,0.24078502955095818
7901.0,26239.0,0.22538856025504483
7911.0,26250.0,0.2080830839732726
7921.0,26245.0,0.19063446595333483
7931.0,26250.0,0.1746309176409445
7941.0,26264.0,0.16144444116872395
7951.0,26251.0,0.15221267989205559
7961.0,26253.0,0.14783441239973347
7971.0,26256.0,0.14897300069555156
7981.0,26257.0,0.15606551267665128
7990.0,26265.0,0.16933640637159936
8001.0,26262.0,0.18881295121811434
8011.0,26264.0,0.21433827854648646
8021.0,26265.0,0.2455789688976351
8031.0,26261.0,0.28202660905003674
8041.0,26270.0,0.32299515972022347
8051.0,26271.0,0.3676171037641783
8061.0,26275.0,0.4148407657134238
8071.0,26271.0,0.4634299535106838
8081.0,26276.0,0.5119672364120689
8091.0,26277.0,0.5588637834352745
8101.0,26284.0,0.6023794534447826
8111.0,26290.0,0.6406554603786703
8121.0,26282.0,0.6717596520758714
8131.0,26285.0,0.6937434461028136
8141.0,26293.0,0.7047103258037325
8151.0,26286.0,0.70289640223358
8161.0,26288.0,0.6867622236280791
8171.0,26292.0,0.655092910463674
8181.0,26290.0,0.6071020796048879
8191.0,26295.0,0.5425335513558527
8201.0,26292.0,0.46175322388129125
8212.0,26296.0,0.3658220168513794
8221.0,26299.0,0.25653957800691124
8231.0,26284.0,0.13644769413895602
8241.0,26273.0,0.008782718717424283
8251.0,26248.0,-0.12263066336099183
8261.0,26235.0,-0.2535448593880867
8271.0,26220.0,-0.3795046841748763
8281.0,26198.0,-0.496095485977536
8291.0,26172.0,-0.5992032588701764
8301.0,26173.0,-0.6852635210402407
8312.0,26156.0,-0.7514743891583193
8322.0,26170.0,-0.7959525772867332
8331.0,26172.0,-0.8178195530208469
8341.0,26175.0,-0.8172154106851365
8351.0,26182.0,-0.795246512686349
8361.0,26197.0,-0.7538775140038249
8371.0,26200.0,-0.6957804127870776
8381.0,26212.0,-0.6241550776865402
8391.0,26224.0,-0.5425366042320371
8401.0,26218.0,-0.45460386431699634
8411.0,26220.0,-0.3640007484889528
8422.0,26235.0,-0.2741765444780049
8432.0,26249.0,-0.1882474673119172
8441.0,26246.0,-0.10888196378591952
8451.0,26244.0,-0.038215411672993436
8461.0,26248.0,0.022201698612013137
8471.0,26255.0,0.07142366292151747
8481.0,26262.0,0.10910213344268364
8491.0,26260.0,0.13545405631499952
8501.0,26263.0,0.1512050318783296
8511.0,26247.0,0.15750868133908016
8522.0,26252.0,0.15584635497497634
8532.0,26249.0,0.14791580705749238
8542.0,26245.0,0.13551899205957124
8551.0,26249.0,0.12045727360296798
8561.0,26239.0,0.10443969940498936
8571.0,26235.0,0.08900871121469263
8581.0,26244.0,0.07548768115673363
8591.0,26250.0,0.06495389670041135
8601.0,26253.0,0.05823650077851209
8611.0,26255.0,0.05593305124431081
8621.0,26247.0,0.058435675917399614
8632.0,26258.0,0.06595977364606137
8642.0,26250.0,0.07857171062462288
8651.0,26258.0,0.09621380865112186
8661.0,26261.0,0.11872501498737485
8671.0,26261.0,0.14585521871117688
8681.0,26260.0,0.17727097005450693
8691.0,26261.0,0.21255140847811194
8701.0,26271.0,0.25117543707857753
8711.0,26265.0,0.29250234469168035
8721.0,26265.0,0.3357477068317468
8732.0,26259.0,0.3799572538678749
8742.0,26266.0,0.42398444422021014
8752.0,26272.0,0.46647948032498665
8762.0,26275.0,0.5058955450878112
8771.0,26270.0,0.5405137706842018
8781.0,26269.0,0.5684862159037039
8791.0,26274.0,0.5878973422731527
8801.0,26275.0,0.5968457749228689
8811.0,26287.0,0.5935461196147671
8821.0,26284.0,0.5764458837315954
8832.0,26282.0,0.5443482153816245
8842.0,26272.0,0.49653010928850827
8852.0,26284.0,0.4328481923735743
8862.0,26281.0,0.3538263832211236
8872.0,26289.0,0.26071788357815984
8881.0,26280.0,0.1555299267093998
8891.0,26273.0,0.040998315130859206
8901.0,26249.0,-0.0794977165856664
8911.0,26231.0,-0.20208183837552043
8921.0,26220.0,-0.3225794300790926
8932.0,26199.0,-0.4367517789119612
8942.0,26185.0,-0.540545091443311
8952.0,26165.0,-0.6303332335727198
8962.0,26162.0,-0.7031328539380289
8972.0,26164.0,-0.7567707580074037
8981.0,26167.0,-0.7899889367790278
8991.0,26175.0,-0.8024820482628167
9001.0,26172.0,-0.7948712870457713
9011.0,26183.0,-0.7686238516740402
9021.0,26192.0,-0.7259287992951391
9031.0,26198.0,-0.6695408480280006
9042.0,26210.0,-0.6026052061999962
9052.0,26209.0,-0.5284773555756612
9062.0,26208.0,-0.4505501177294261
9072.0,26223.0,-0.3720962863818768
9082.0,26218.0,-0.29613086749048995
9091.0,26230.0,-0.22529515749169343
9101.0,26232.0,-0.1617649859767517
9111.0,26232.0,-0.10718535432861977
9121.0,26238.0,-0.06263288123222766
9131.0,26236.0,-0.02860610628923299
9142.0,26246.0,-0.005042466509997115
9152.0,26243.0,0.00863933837678128
9162.0,26232.0,0.013472491367597062
9172.0,26232.0,0.010853156482048326
9182.0,26229.0,0.0024359485831448343
9192.0,26228.0,-0.0099768452971176
9201.0,26225.0,-0.024543563393688503
9211.0,26221.0,-0.039482550833060535
9221.0,26215.0,-0.053157406677254986
9231.0,26223.0,-0.0641429847568847
9242.0,26224.0,-0.07126800094148832
9252.0,26223.0,-0.0736333290775032
9262.0,26239.0,-0.07060915049578476
9272.0,26233.0,-0.06181708036264712
9282.0,26230.0,-0.04710491815940851
9292.0,26232.0,-0.02652066668058602
9302.0,26239.0,-0.0002887470264685258
9311.0,26240.0,0.03121123185563515
9321.0,26246.0,0.06746185478016734
9331.0,26231.0,0.10781883692313782
9341.0,26247.0,0.15151462711883185
9352.0,26244.0,0.19765718902226478
9362.0,26249.0,0.245227611150787
9372.0,26255.0,0.29307843663918454
9382.0,26245.0,0.3399331244529345
9392.0,26247.0,0.38438793691414186
9402.0,26249.0,0.4249202323012865
9412.0,26253.0,0.4599090987069141
9421.0,26259.0,0.4876728551209539
9431.0,26258.0,0.5065239350310246
9441.0,26252.0,0.5148384272083827
9452.0,26253.0,0.5111372342086626
9462.0,26254.0,0.4941774591772516
9472.0,26263.0,0.46305283833501204
9482.0,26263.0,0.41729865071756306
9492.0,26258.0,0.3569915895590245
9502.0,26257.0,0.28283264220938004
9512.0,26262.0,0.19620224875899203
9522.0,26262.0,0.09917862575531368
9531.0,26255.0,-0.005490395086005031
9541.0,26235.0,-0.11447160019081859
9552.0,26212.0,-0.22399100884216347
9562.0,26189.0,-0.3300322642149103
9572.0,26185.0,-0.42857048128878306
9582.0,26162.0,-0.5158168420502545
9592.0,26158.0,-0.5884498294362069
9602.0,26150.0,-0.6438128566340513
9612.0,26157.0,-0.680062379903619
9622.0,26155.0,-0.6962564115987478
9631.0,26167.0,-0.6923808253534345
9641.0,26160.0,-0.6693174593950518
9652.0,26169.0,-0.6287616091479729
9662.0,26183.0,-0.5730972240582446
9672.0,26193.0,-0.5052388573744439
9682.0,26198.0,-0.42845239036505667
9692.0,26209.0,-0.3461693352283999
9702.0,26205.0,-0.2618087274437194
9712.0,26216.0,-0.17861683278713203
9722.0,26213.0,-0.09953054634715816
9732.0,26222.0,-0.027066987871316422
9741.0,26230.0,0.03675985293515385
9752.0,26233.0,0.09049435102015455
9762.0,26226.0,0.13326431801763736
9772.0,26219.0,0.16477500909161324
9782.0,26231.0,0.1852756477161825
9792.0,26233.0,0.19550573134850766
9802.0,26226.0,0.19662689599843103
9812.0,26225.0,0.19014245414136274
9822.0,26224.0,0.17780648781886108
9832.0,26219.0,0.16152679673027534
9841.0,26223.0,0.1432670212543106
9852.0,26211.0,0.12495247976503879
9862.0,26207.0,0.10838378073114509
9872.0,26212.0,0.09516310662354802
9882.0,26217.0,0.08663840914722652
9892.0,26212.0,0.08386796055037232
9902.0,26219.0,0.08760331615818676
9912.0,26215.0,0.09828670697793099
9922.0,26218.0,0.1160594416818532
9932.0,26215.0,0.14077900821059633
9942.0,26228.0,0.1720434594340954
9952.0,26229.0,0.2092215180073533
9962.0,26231.0,0.2514850603914283
9972.0,26222.0,0.2978395333502335
9982.0,26230.0,0.347150217612204
9992.0,26243.0,0.3981661700717932
10002.0,26239.0,0.4495441290744922
10012.0,26247.0,0.4998713341814297
10022.0,26244.0,0.5476841793332476
10032.0,26244.0,0.5914812636338745
10042.0,26240.0,0.629732452420512
10053.0,26245.0,0.6608880859527418
10062.0,26244.0,0.683393560158802
10072.0,26236.0,0.6957136176560056
10082.0,26234.0,0.6963694785269426
10092.0,26231.0,0.6839922657963352
10102.0,26240.0,0.6573963528917341
10112.0,26239.0,0.6156732016839152
10122.0,26242.0,0.5583003004721429
10132.0,26240.0,0.48525446244654935
10142.0,26245.0,0.3971162732511994
10152.0,26243.0,0.29515182632974823
10163.0,26240.0,0.18135748097385487
10172.0,26237.0,0.05845377708150765
10182.0,26215.0,-0.07018270192968262
10192.0,26183.0,-0.200654517026326
10202.0,26169.0,-0.3287398573360122
10212.0,26155.0,-0.45013222664899855
10222.0,26132.0,-0.5606982516820297
10232.0,26118.0,-0.6567287427201933
10242.0,26114.0,-0.7351605233775509
10252.0,26111.0,-0.793749210288615
10263.0,26112.0,-0.8311787815466155
10272.0,26118.0,-0.8471020978185031
10282.0,26130.0,-0.8421144817910122
10292.0,26129.0,-0.817668956421138
10302.0,26137.0,-0.7759462548020404
10312.0,26146.0,-0.7196939232434462
10322.0,26157.0,-0.6520478729249091
10332.0,26161.0,-0.5763494390009017
10342.0,26164.0,-0.49597110320295174
10352.0,26152.0,-0.4141615751630254
10363.0,26164.0,-0.33391492808667644
10373.0,26178.0,-0.25786237200111495
10382.0,26184.0,-0.18818445995589622
10392.0,26189.0,-0.1265463895420032
10402.0,26177.0,-0.07406276902184732
10412.0,26188.0,-0.03129560796361751
10422.0,26179.0,0.0017168147650964243
10432.0,26186.0,0.02540648172752535
10442.0,26183.0,0.04060414092119344
10452.0,26179.0,0.04845532737595607
10463.0,26174.0,0.05032915128303923
10473.0,26174.0,0.047726087647297216
10482.0,26183.0,0.042191814950639485
10492.0,26179.0,0.035242266996023834
10502.0,26169.0,0.028301157873492556
10512.0,26172.0,0.0226496640374788
10522.0,26172.0,0.0193899899722232
10532.0,26177.0,0.019425798180089007
10542.0,26182.0,0.02345990008775095
10552.0,26181.0,0.03200546491034474
10563.0,26179.0,0.04540469856191766
10573.0,26190.0,0.06384946671962248
10583.0,26188.0,0.08739987517277198
10592.0,26191.0,0.11599711571610524
10602.0,26192.0,0.14946675376181323
10612.0,26181.0,0.187510314654815
10622.0,26188.0,0.22968662973042403
10632.0,26195.0,0.2753879276894141
10642.0,26196.0,0.3238162085446417
10652.0,26195.0,0.37396271507945333
10663.0,26193.0,0.4245914331689346
10673.0,26194.0,0.4742291778095828
10683.0,26190.0,0.5211676133847774
10693.0,26203.0,0.5634835348975897
10702.0,26200.0,0.5990820508404471
10712.0,26195.0,0.6257638662051439
10722.0,26200.0,0.6413154385919453
10732.0,26207.0,0.6436205569106398
10742.0,26205.0,0.6307907173265503
10752.0,26210.0,0.6013077964678333
10763.0,26210.0,0.5541688717547769
10773.0,26205.0,0.48902162896861534
10783.0,26210.0,0.4062787648177049
10793.0,26212.0,0.30720001711208206
10802.0,26215.0,0.19392973171791814
10812.0,26201.0,0.06947636537326649
10822.0,26181.0,-0.06237842907544161
10832.0,26150.0,-0.19724578748112043
10842.0,26132.0,-0.3303621244971415
10852.0,26113.0,-0.45686661210805246
10863.0,26102.0,-0.5720954766487958
10873.0,26080.0,-0.6718655973007788
10883.0,26074.0,-0.7527237187372853
10893.0,26068.0,-0.8121410955010797
10903.0,26076.0,-0.8486376368822908
10912.0,26082.0,-0.8618270710249756
10922.0,26095.0,-0.8523846176102385
10932.0,26095.0,-0.8219478175623062
10942.0,26105.0,-0.7729664176859201
10952.0,26117.0,-0.7085179590928166
10963.0,26119.0,-0.6321044862129029
10973.0,26138.0,-0.5474450366380376
10983.0,26131.0,-0.45827792300028464
10993.0,26135.0,-0.3681846411758895
11003.0,26141.0,-0.2804427093856707
11013.0,26149.0,-0.1979095749121606
11022.0,26150.0,-0.1229373760637989
11032.0,26151.0,-0.05731877374083922
11042.0,26145.0,-0.00226349261644629
11052.0,26160.0,0.04159761872814234
11063.0,26160.0,0.0741861252644987
11073.0,26155.0,0.09593081014453643
11083.0,26158.0,0.10770524828214252
11093.0,26152.0,0.11075043079315983
11103.0,26159.0,0.10658703237308527
11113.0,26145.0,0.09692259277903151
11122.0,26149.0,0.08355845205272026
11132.0,26150.0,0.06830142940335886
11142.0,26146.0,0.05288496716045847
11152.0,26138.0,0.03890280344368697
11163.0,26144.0,0.027757237731321847
11173.0,26145.0,0.020624416559767052
11183.0,26159.0,0.01843766262417059
11193.0,26144.0,0.02188562250238335
11203.0,26140.0,0.031419199981288656
11213.0,26153.0,0.04726363310832659
11223.0,26155.0,0.06943609606979653
11232.0,26162.0,0.09776849695401603
11242.0,26161.0,0.1319308625768633
11252.0,26156.0,0.17144917502314236
11263.0,26159.0,0.21571466000322795
11273.0,26163.0,0.26398612813903616
11283.0,26173.0,0.3153891253827921
11293.0,26172.0,0.36891404379876336
11303.0,26167.0,0.4234128159743248
11313.0,26176.0,0.4775942081971539
11323.0,26173.0,0.5300206226321981
11333.0,26174.0,0.5791110486617821
11342.0,26183.0,0.6231543075308615
11352.0,26180.0,0.660335438630264
11363.0,26170.0,0.6887767170816936
11373.0,26185.0,0.7065945196189591
11383.0,26183.0,0.7119737943267189
11393.0,26182.0,0.7032600364786629
11403.0,26183.0,0.6790646920495154
11413.0,26185.0,0.6383776703076387
11423.0,26179.0,0.5806802088680493
11433.0,26180.0,0.5060505942334158
11443.0,26188.0,0.41525427084981587
11452.0,26194.0,0.3098080735872074
11463.0,26181.0,0.1920047882496473
11473.0,26164.0,0.06488263747882371
11483.0,26149.0,-0.06787024389858065
11493.0,26132.0,-0.20207519688200234
11503.0,26114.0,-0.33327512450790514
11513.0,26088.0,-0.45698228024433096
11523.0,26071.0,-0.568940886321728
11533.0,26064.0,-0.6653803681082493
11543.0,26058.0,-0.7432347355560516
11552.0,26053.0,-0.8003086635285964
11563.0,26063.0,-0.8353789127057865
11573.0,26060.0,-0.8482275673077112
11583.0,26066.0,-0.839610101250912
11593.0,26074.0,-0.8111658879623204
11603.0,26089.0,-0.7652814297229361
11613.0,26093.0,-0.7049191785402312
11623.0,26097.0,-0.6334274316967577
11633.0,26108.0,-0.5543466926292807
11643.0,26116.0,-0.47122492867021376
11653.0,26112.0,-0.3874513327358803
11663.0,26118.0,-0.3061159154379435
11673.0,26123.0,-0.22989865609915927
11683.0,26124.0,-0.16098824155776262
11693.0,26128.0,-0.10102895710761156
11703.0,26134.0,-0.051094247327189854
11713.0,26143.0,-0.011685704539245202
11723.0,26140.0,0.017242619309759493
11733.0,26127.0,0.036233837868771906
11743.0,26134.0,0.046253563591729045
11753.0,26133.0,0.04859765174034001
11763.0,26129.0,0.04479121191146408
11773.0,26127.0,0.036485894977200166
11783.0,26122.0,0.025360813796218885
11793.0,26125.0,0.01303277126620707
11803.0,26122.0,0.0009814295065125878
11813.0,26128.0,-0.00950676641011171
11823.0,26128.0,-0.017374956089749198
11833.0,26116.0,-0.021814012480925977
11843.0,26126.0,-0.02226434365394304
11853.0,26125.0,-0.01840177805913686
11864.0,26131.0,-0.010107889893347445
11873.0,26137.0,0.002572096059034258
11883.0,26145.0,0.019477353189392692
11893.0,26133.0,0.04037719343243889
11903.0,26141.0,0.06500709782475463
11913.0,26138.0,0.09309146386587602
11923.0,26143.0,0.12435346165000828
11933.0,26145.0,0.15851356700857472
11943.0,26137.0,0.19527791145021642
11953.0,26149.0,0.23431814061359776
11964.0,26148.0,0.2752458669080285
11973.0,26153.0,0.3175848563800678
11983.0,26156.0,0.36074256177997677
11993.0,26143.0,0.4039819575568348
12003.0,26152.0,0.4463965100880994
12013.0,26155.0,0.48689410213201567
12023.0,26157.0,0.524196267979339
12033.0,26164.0,0.5568559540938951
12043.0,26168.0,0.583293111670428
12053.0,26155.0,0.6018452880937077
12064.0,26160.0,0.6108307089955055
12074.0,26158.0,0.6086238256614859
12083.0,26164.0,0.5937448198361641
12093.0,26165.0,0.5649621573608312
12103.0,26153.0,0.521402950863056
12113.0,26164.0,0.46266364605407734
12123.0,26164.0,0.3889135578421295
12133.0,26165.0,0.30098256633110804
12143.0,26174.0,0.2004207914013168
12153.0,26157.0,0.08951540113831204
12164.0,26150.0,-0.028749211530711246
12174.0,26126.0,-0.15079570940336803
12184.0,26108.0,-0.27262052450313967
12193.0,26084.0,-0.3900104746202523
12203.0,26074.0,-0.49878864654019683
12213.0,26061.0,-0.5950650394232819
12223.0,26052.0,-0.6754685418881267
12233.0,26046.0,-0.7373411806274869
12243.0,26048.0,-0.7788806082715956
12253.0,26050.0,-0.7992219811294281
12264.0,26052.0,-0.7984563099209822
12274.0,26059.0,-0.7775880644663858
12284.0,26076.0,-0.7384390968746943
12293.0,26080.0,-0.6835097285133387
12303.0,26091.0,-0.6158116387961885
12313.0,26087.0,-0.5386886729274597
12323.0,26091.0,-0.4556388484115793
12333.0,26105.0,-0.3701454235601527
12343.0,26110.0,-0.2855211593218105
12353.0,26118.0,-0.204770210997554
12364.0,26115.0,-0.13047377398146365
12374.0,26117.0,-0.06470451627509956
12384.0,26126.0,-0.00897096056208981
12394.0,26134.0,0.03580984213612517
12403.0,26130.0,0.06931226145234354
12413.0,26127.0,0.09177376730174333
12423.0,26123.0,0.10393889332795853
12433.0,26126.0,0.1069803636845901
12443.0,26123.0,0.1024051281700292
12453.0,26127.0,0.09195241449892583
12464.0,26120.0,0.07748863831743961
12474.0,26116.0,0.060902668945625654
12484.0,26110.0,0.04400563326277105
12494.0,26111.0,0.02844131256803362
12504.0,26111.0,0.015613940610539995
12513.0,26112.0,0.006638395192840826
12523.0,26119.0,0.002314312511088923
12533.0,26105.0,0.003122494325661514
12543.0,26114.0,0.009240813165677802
12553.0,26118.0,0.020577750783684113
12564.0,26128.0,0.03682174483113008
12574.0,26130.0,0.05750128225591366
12584.0,26124.0,0.08204704899629991
12594.0,26124.0,0.10984797509289466
12604.0,26128.0,0.1402976115661457
12613.0,26135.0,0.1728313323665076
12623.0,26145.0,0.2069546652941023
12633.0,26129.0,0.24226005942558074
12643.0,26141.0,0.2784285188569734
12653.0,26137.0,0.3152158081462517
12664.0,26146.0,0.35242649441486507
12674.0,26149.0,0.38987912487965853
12684.0,26140.0,0.42736400225370136
12694.0,26136.0,0.4645952699478624
12704.0,26143.0,0.5011625076372369
12714.0,26150.0,0.5364901805802492
12723.0,26151.0,0.5698116370716853
12733.0,26146.0,0.6001595087901229
12743.0,26146.0,0.6263721301064051
12753.0,26153.0,0.6471172562119365
12764.0,26151.0,0.6609355954905873
12774.0,26153.0,0.6663047593280588
12784.0,26158.0,0.6617212540476277
12794.0,26154.0,0.6457962058615717
12804.0,26154.0,0.6173593040158313
12814.0,26145.0,0.5755650891361086
12823.0,26160.0,0.5199964419912501
12833.0,26155.0,0.4507597827522373
12843.0,26151.0,0.3685634839187822
12853.0,26153.0,0.2747682224830163
12864.0,26145.0,0.1713986107705105
12874.0,26147.0,0.06110793850273989
12884.0,26124.0,-0.05290983732993651
12894.0,26102.0,-0.16706277242039705
12904.0,26081.0,-0.27755201550179587
12914.0,26063.0,-0.38059429615836676
12924.0,26063.0,-0.47265141265211175
12933.0,26057.0,-0.550642605201729
12943.0,26047.0,-0.6121224287487169
12953.0,26031.0,-0.6554138897886741
12964.0,26050.0,-0.6796893440707138
12974.0,26046.0,-0.6849926885633166
12984.0,26063.0,-0.672201629962738
12994.0,26067.0,-0.6429373427375906
13004.0,26072.0,-0.5994350045544092
13014.0,26074.0,-0.5443901612784523
13024.0,26086.0,-0.48079382412463273
13034.0,26096.0,-0.4117664679460515
13043.0,26098.0,-0.3404003973181815
13053.0,26092.0,-0.26962006155789325
13064.0,26097.0,-0.20206697385057087
13074.0,26107.0,-0.14001023508971452
13084.0,26106.0,-0.08528037746463114
13094.0,26120.0,-0.03922555201184716
13104.0,26113.0,-0.002691663511673165
13114.0,26101.0,0.0239717739332571
13124.0,26115.0,0.04088166374359524
13134.0,26114.0,0.04857319274857779
13143.0,26112.0,0.04793986747888772
13153.0,26119.0,0.040164589225090315
13164.0,26107.0,0.026642419862730197
13174.0,26095.0,0.008896772619352122
13184.0,26103.0,-0.011505860304375818
13194.0,26105.0,-0.03303447223391406
13204.0,26104.0,-0.054258690678919856
13214.0,26096.0,-0.07389899686049092
13224.0,26100.0,-0.09086329352019155
13234.0,26097.0,-0.10426988234587017
13244.0,26102.0,-0.1134558960405018
13253.0,26103.0,-0.11797166114191221
13264.0,26105.0,-0.11756379340201406
13274.0,26095.0,-0.11215104396198215
13284.0,26109.0,-0.10179605535307111
13294.0,26111.0,-0.086674595399604
13304.0,26112.0,-0.06704443071161686
13314.0,26117.0,-0.043218310500452786
13324.0,26118.0,-0.015546084184255324
13334.0,26117.0,0.015590778538906148
13344.0,26113.0,0.049771435503819975
13354.0,26117.0,0.0865167776204333
13364.0,26126.0,0.12526405415611527
13374.0,26113.0,0.1653399089122991
13384.0,26122.0,0.20593558193675646
13394.0,26122.0,0.2460883963911894
13404.0,26130.0,0.28467447389859546
13414.0,26131.0,0.32041597733530447
13424.0,26135.0,0.3519030841191143
13434.0,26128.0,0.3776292831259048
13444.0,26130.0,0.39603933187577967
13454.0,26136.0,0.4055909949427568
13464.0,26139.0,0.4048317781635714
13474.0,26146.0,0.3924886883811527
13484.0,26137.0,0.3675647001715581
13494.0,26136.0,0.3294337488206325
13504.0,26137.0,0.2779276845773651
13514.0,26140.0,0.2134108013080775
13524.0,26147.0,0.1368367392639685
13534.0,26143.0,0.04977892352525266
13544.0,26128.0,-0.04557690828937362
13554.0,26128.0,-0.14648741396341236
13565.0,26106.0,-0.2497564070165016
13574.0,26090.0,-0.35188517001884173
13584.0,26083.0,-0.4492575083048746
13594.0,26057.0,-0.538343560071386
13604.0,26062.0,-0.6159035680398891
13614.0,26051.0,-0.6791731708136935
13624.0,26054.0,-0.7260152088494718
13634.0,26046.0,-0.7550285287097659
13644.0,26047.0,-0.7656089531377133
13654.0,26057.0,-0.7579600659156216
13665.0,26061.0,-0.7330539318746807
13674.0,26077.0,-0.6925463418878954
13684.0,26081.0,-0.6386564213184059
13694.0,26085.0,-0.5740237825655577
13704.0,26088.0,-0.5015561650692619
13714.0,26097.0,-0.4242771375891967
13724.0,26111.0,-0.34517999059151133
13734.0,26114.0,-0.26709345441624766
13744.0,26114.0,-0.19256623791024077
13754.0,26115.0,-0.12377648939996917
13765.0,26122.0,-0.062467989473416675
13775.0,26127.0,-0.009910913391500959
13784.0,26134.0,0.033115365124995085
13794.0,26133.0,0.06631792181334974
13804.0,26120.0,0.08986404712238942
13814.0,26127.0,0.10433547483817977
13824.0,26135.0,0.11066966963596075
13834.0,26135.0,0.11009531590232938
13844.0,26134.0,0.10406483964424884
13854.0,26129.0,0.09418322239541346
13865.0,26125.0,0.08213346683196707
13875.0,26132.0,0.06960233896275825
13885.0,26126.0,0.05821132852234859
13894.0,26129.0,0.04945628820215897
13904.0,26129.0,0.044657217313728945
13914.0,26127.0,0.044918865462825294
13924.0,26133.0,0.05110265980148791
13934.0,26137.0,0.06380992224829972
13944.0,26142.0,0.08337495244343736
13954.0,26140.0,0.10986472489795296
13965.0,26140.0,0.14308154412414953
13975.0,26147.0,0.18256697049533602
13985.0,26148.0,0.2276076941726699
13995.0,26152.0,0.27724455872286097
14004.0,26161.0,0.3302851222658262
14014.0,26156.0,0.38531949677747274
14024.0,26163.0,0.4407392825563505
14034.0,26162.0,0.4947604985351037
14044.0,26171.0,0.5454527981726237
14054.0,26171.0,0.5907772756023206
14065.0,26171.0,0.6286338323149957
14075.0,26163.0,0.6569184811673549
14085.0,26165.0,0.673592495527232
14095.0,26174.0,0.6767672658460739
14104.0,26179.0,0.664807337626486
14114.0,26179.0,0.6364483953800535
14124.0,26180.0,0.5909209792158558
14134.0,26188.0,0.5280682386895242
14144.0,26174.0,0.4484459853775319
14154.0,26192.0,0.35339349162437056
14165.0,26188.0,0.24506343537642858
14175.0,26170.0,0.12639894293889106
14185.0,26157.0,0.001047257237558446
14195.0,26136.0,-0.1267929067495377
14205.0,26117.0,-0.25258188958827327
14214.0,26098.0,-0.37168984063281957
14224.0,26084.0,-0.47966494321096614
14234.0,26070.0,-0.572494598482693
14244.0,26066.0,-0.6468363047332133
14254.0,26065.0,-0.7001989288610643
14265.0,26070.0,-0.731061356374019
14275.0,26077.0,-0.7389234102476793
14285.0,26079.0,-0.7242916975323991
14295.0,26093.0,-0.6886086828259045
14305.0,26095.0,-0.6341362352696283
14315.0,26105.0,-0.5638060296829346
14324.0,26113.0,-0.4810491124322824
14334.0,26113.0,-0.3896157578120983
14344.0,26121.0,-0.29339462935761584
14354.0,26127.0,-0.19623747596077767
14365.0,26139.0,-0.10179338275463293
14375.0,26148.0,-0.013356641479550147
14385.0,26154.0,0.0662658671746053
14395.0,26156.0,0.13486070750668447
14405.0,26162.0,0.1908814346872082
14415.0,26165.0,0.2334865312384281
14424.0,26165.0,0.2625409666216903
14434.0,26162.0,0.27858206579592537
14444.0,26159.0,0.2827522608853314
14454.0,26153.0,0.27670411818832796
14465.0,26153.0,0.2624856592933826
14475.0,26153.0,0.24241508937210576
14485.0,26151.0,0.21895299756529762
14495.0,26141.0,0.19457789351199778
14505.0,26141.0,0.17166996510931729
14515.0,26145.0,0.15240870105672966
14525.0,26152.0,0.13868951139314656
14534.0,26151.0,0.13206055646210035
14544.0,26147.0,0.1336764349944106
14554.0,26144.0,0.14426457253925287
14565.0,26157.0,0.16410308118795539
14575.0,26156.0,0.1930109550092698
14585.0,26156.0,0.23035004081146085
14595.0,26159.0,0.27503635422682887
14605.0,26149.0,0.32555954850134505
14615.0,26163.0,0.3800126117602647
14625.0,26162.0,0.4361358773625395
14634.0,26172.0,0.49137825184572664
14644.0,26175.0,0.5429750914179088
14654.0,26162.0,0.5880395416074876
14665.0,26173.0,0.6236648136102695
14675.0,26170.0,0.6470377050743713
14685.0,26174.0,0.655564671140495
14695.0,26176.0,0.6470091680430547
14705.0,26177.0,0.6196353577113903
14715.0,26176.0,0.5723506651103016
14725.0,26179.0,0.5048380072998214
14735.0,26189.0,0.41766704999785853
14744.0,26191.0,0.3123713368901299
14754.0,26183.0,0.1914747915830636
14765.0,26163.0,0.05845077837854403
14775.0,26152.0,-0.08239667577180397
14785.0,26122.0,-0.22612853312017642
14795.0,26107.0,-0.36743111687905133
14805.0,26079.0,-0.5009206991104601
14815.0,26060.0,-0.6214662244119434
14825.0,26048.0,-0.7245012063360351
14835.0,26043.0,-0.8062964081320788
14845.0,26042.0,-0.8641699719569003
14854.0,26041.0,-0.8966203457225076
14865.0,26044.0,-0.9033763912365123
14875.0,26049.0,-0.8853658503819565
14885.0,26068.0,-0.8446082748494159
14895.0,26082.0,-0.784043769520303
14905.0,26091.0,-0.7073152186336482
14915.0,26103.0,-0.6185263698147254
14925.0,26097.0,-0.5219979245599068
14935.0,26107.0,-0.4220385816299437
14945.0,26114.0,-0.32274086584386524
14954.0,26123.0,-0.2278066038577985
14965.0,26123.0,-0.1404058583633185
14975.0,26120.0,-0.06307311205302357
14985.0,26129.0,0.002358011381208956
14995.0,26134.0,0.05478383107296602
15005.0,26133.0,0.09382680651232077
15015.0,26134.0,0.11980071073500086
15025.0,26129.0,0.13364644476721424
15035.0,26126.0,0.13684238199674995
15045.0,26127.0,0.1312957624164051
15055.0,26128.0,0.11922270453090877
15065.0,26120.0,0.10302333353507284
15075.0,26115.0,0.08515700810680196
15085.0,26114.0,0.0680229410309493
15095.0,26119.0,0.053852690326401366
15105.0,26115.0,0.044619931677757206
15115.0,26119.0,0.04196954726498648
15125.0,26119.0,0.04716530406386925
15135.0,26115.0,0.061054587168895405
15145.0,26126.0,0.08404892178208526
15155.0,26127.0,0.11611911469861244
15166.0,26130.0,0.15680279656288326
15175.0,26136.0,0.20522069031857712
15185.0,26126.0,0.2600980837857765
15195.0,26134.0,0.3197903141508477
15205.0,26135.0,0.38231424286703825
15215.0,26136.0,0.44538944631239374
15225.0,26145.0,0.5064921064930359
15235.0,26148.0,0.5629226035314463
15245.0,26135.0,0.6118860865490621
15255.0,26151.0,0.6505851305070349
15266.0,26143.0,0.6763249533042736
15275.0,26154.0,0.6866315691513536
15285.0,26149.0,0.6793803107105518
15295.0,26144.0,0.6529291534758238
15305.0,26151.0,0.6062504007633367
15315.0,26146.0,0.5390543549124731
15325.0,26164.0,0.4518969803379262
15335.0,26162.0,0.346259219562524
15345.0,26154.0,0.2245807253624369
15355.0,26137.0,0.09022994989300594
15366.0,26119.0,-0.05260088678394714
15376.0,26102.0,-0.1990758412539774
15385.0,26081.0,-0.34395949067092163
15395.0,26052.0,-0.4819074523688873
15405.0,26022.0,-0.6077798333446718
15415.0,26026.0,-0.716948967621061
15425.0,26013.0,-0.8055711500102822
15435.0,26005.0,-0.870798129039169
15445.0,26013.0,-0.9109143271719008
15455.0,26008.0,-0.9253938822757332
15466.0,26031.0,-0.9148777710899338
15476.0,26035.0,-0.8810782458135448
15486.0,26042.0,-0.8266249193280651
15495.0,26048.0,-0.7548709052607516
15505.0,26059.0,-0.6696766863226667
15515.0,26062.0,-0.5751862021903278
15525.0,26072.0,-0.4756071742108633
15535.0,26087.0,-0.37500613968661095
15545.0,26086.0,-0.27712771672139
15555.0,26085.0,-0.18524674595124005
15566.0,26088.0,-0.10205877750392522
15576.0,26101.0,-0.02960895496421412
15586.0,26096.0,0.03074381684239245
15595.0,26102.0,0.07832977344128537
15605.0,26104.0,0.11313965279422529
15615.0,26091.0,0.1357670561004644
15625.0,26091.0,0.14732684794987505
15635.0,26096.0,0.14935772051165988
15645.0,26100.0,0.14371826165497914
15655.0,26096.0,0.1324827144143202
15666.0,26094.0,0.11783803911942191
15676.0,26085.0,0.1019828138265086
15686.0,26086.0,0.08703100433845838
15696.0,26088.0,0.07492607511904678
15705.0,26085.0,0.06737057607575693
15715.0,26095.0,0.06577351563943906
15725.0,26089.0,0.07121466929239646
15735.0,26088.0,0.08442315053719476
15745.0,26099.0,0.1057677083958963
15755.0,26103.0,0.13525700662257714
15766.0,26100.0,0.17254721214174454
15776.0,26103.0,0.21695280224906532
15786.0,26104.0,0.26745787095708257
15796.0,26104.0,0.32272845252172416
15806.0,26112.0,0.3811283569254027
15815.0,26113.0,0.4407410711235613
15825.0,26107.0,0.4993995168397672
15835.0,26114.0,0.5547255105133331
15845.0,26112.0,0.6041821852130119
15855.0,26120.0,0.6451432351014372
15866.0,26115.0,0.6749810514232527
15876.0,26121.0,0.691173232207449
15886.0,26118.0,0.6914252778458727
15896.0,26125.0,0.6738060396966167
15906.0,26129.0,0.6368903741067614
15915.0,26125.0,0.5799002194010413
15925.0,26134.0,0.5028322494471196
15935.0,26123.0,0.4065587654485935
15945.0,26129.0,0.2928885689628801
15955.0,26121.0,0.16457561096477769
15966.0,26116.0,0.025264920520824335
15976.0,26094.0,-0.12063189821561518
15986.0,26071.0,-0.2681336489069147
15996.0,26037.0,-0.41195120646366673
16006.0,26017.0,-0.5467938225126435
16016.0,26000.0,-0.6676899387632745
16025.0,25997.0,-0.7702890929236825
16035.0,25979.0,-0.8511161646238539
16045.0,25983.0,-0.9077578120583737
16055.0,25986.0,-0.9389688542833622
16066.0,25994.0,-0.9446935280782691
16076.0,26016.0,-0.9260050734001359
16086.0,26023.0,-0.8849764549244328
16096.0,26012.0,-0.8245020425669808
16106.0,26036.0,-0.7480908090014294
16116.0,26042.0,-0.6596466222260742
16126.0,26048.0,-0.5632474137630156
16135.0,26060.0,-0.4629352663046541
16145.0,26065.0,-0.3625292838055423
16155.0,26061.0,-0.26547030506434494
16166.0,26072.0,-0.1747024612290679
16176.0,26069.0,-0.09259207441061103
16186.0,26080.0,-0.020881109558974018
16196.0,26090.0,0.039328083336094916
16206.0,26076.0,0.0875585490250762
16216.0,26087.0,0.12391624927945319
16226.0,26076.0,0.1490228847333605
16235.0,26088.0,0.16393088647080944
16245.0,26086.0,0.17002806897128678
16255.0,26080.0,0.16893730709859645
16266.0,26075.0,0.16241498253646744
16276.0,26077.0,0.15225307492866721
16286.0,26076.0,0.14019166897281038
16296.0,26075.0,0.12784792951532475
16306.0,26088.0,0.11666443573333525
16316.0,26072.0,0.10787631706452548
16326.0,26078.0,0.10249452526604697
16336.0,26083.0,0.10130295931023463
16345.0,26091.0,0.10486805173020186
16355.0,26083.0,0.11355754382021686
16366.0,26081.0,0.12756281995350738
16376.0,26090.0,0.1469207350169761
16386.0,26092.0,0.17153420798699437
16396.0,26099.0,0.2011909730777604
16406.0,26103.0,0.23557726387802788
16416.0,26090.0,0.2742820164062712
16426.0,26101.0,0.31678955981157975
16436.0,26099.0,0.3624632303994238
16446.0,26106.0,0.4105249976684474
16455.0,26111.0,0.4600351911757867
16466.0,26107.0,0.5098742133093324
16476.0,26103.0,0.5587277215499271
16486.0,26108.0,0.6050789369886682
16496.0,26112.0,0.6472143841730165
16506.0,26122.0,0.6832488695684704
16516.0,26116.0,0.7111713957853844
16526.0,26111.0,0.728910000612257
16536.0,26119.0,0.7344135977869448
16546.0,26111.0,0.7257509397528825
16555.0,26121.0,0.7012266070044395
16566.0,26124.0,0.6595106808432212
16576.0,26117.0,0.5997744830394823
16586.0,26126.0,0.5218213669997382
16596.0,26120.0,0.42620015157695973
16606.0,26126.0,0.31428848349310606
16616.0,26127.0,0.1883326500987489
16626.0,26105.0,0.05142992756252904
16636.0,26089.0,-0.0925575741835363
16646.0,26068.0,-0.23916010352370795
16656.0,26055.0,-0.38351956210251437
16666.0,26027.0,-0.5206534103153193
16676.0,26019.0,-0.6457417036957891
16686.0,25990.0,-0.7544138938868584
16696.0,25984.0,-0.8430109962070128
16706.0,25980.0,-0.9087993132592912
16716.0,25988.0,-0.9501159333710372
16726.0,25990.0,-0.9664349441698394
16736.0,25994.0,-0.9583540470379527
16746.0,26014.0,-0.9275093837146805
16756.0,26014.0,-0.8764311148395862
16767.0,26030.0,-0.80835557539613
16776.0,26039.0,-0.727011577873976
16786.0,26043.0,-0.6363979376508055
16796.0,26049.0,-0.5405672029108929
16806.0,26059.0,-0.4434271826379456
16816.0,26066.0,-0.34856815688697657
16826.0,26071.0,-0.2591215237820594
16836.0,26070.0,-0.1776545243380483
16846.0,26078.0,-0.10610338914066661
16856.0,26081.0,-0.04574404262848642
16867.0,26080.0,0.002802459627604537
16876.0,26087.0,0.03953305951985966
16886.0,26082.0,0.06499814949783972
16896.0,26075.0,0.08021417904848265
16906.0,26082.0,0.0865600558950958
16916.0,26074.0,0.08566587700753674
16926.0,26080.0,0.07930256675390565
16936.0,26076.0,0.06927901425015341
16946.0,26080.0,0.05735104621246857
16956.0,26073.0,0.04514485802747792
16967.0,26076.0,0.034096573155075756
16977.0,26076.0,0.0254094608456776
16986.0,26085.0,0.02002976505874279
16996.0,26075.0,0.01864001576375693
17006.0,26075.0,0.021666805629679813
17016.0,26083.0,0.02930068325667268
17026.0,26088.0,0.041527256927849976
17036.0,26086.0,0.058167244935565
17046.0,26093.0,0.0789203581792133
17056.0,26091.0,0.10340732806711693
17067.0,26094.0,0.1312060081472622
17077.0,26093.0,0.16187929026284922
17087.0,26103.0,0.19499403956225914
17096.0,26101.0,0.2301308674121301
17106.0,26104.0,0.266884111328252
17116.0,26097.0,0.3048515690843627
17126.0,26108.0,0.3436156674763142
17136.0,26112.0,0.38271991240533604
17146.0,26120.0,0.4216437027456895
17156.0,26112.0,0.459775608932462
17167.0,26105.0,0.4963843987684329
17177.0,26114.0,0.5305907373063402
17187.0,26108.0,0.5613469935543255
17196.0,26122.0,0.5874329571008421
17206.0,26119.0,0.6074714880044834
17216.0,26110.0,0.6199640292100056
17226.0,26108.0,0.6233449149903951
17236.0,26117.0,0.6160556466060233
17246.0,26121.0,0.5966411606421484
17256.0,26119.0,0.5638658100940531
17267.0,26125.0,0.5168406075522837
17277.0,26120.0,0.4551501799123569
17287.0,26121.0,0.3789677472011301
17297.0,26124.0,0.28914699119912574
17306.0,26129.0,0.18727967649758187
17316.0,26125.0,0.07570673084105599
17326.0,26094.0,-0.04252983360989048
17336.0,26092.0,-0.16380168214694807
17346.0,26057.0,-0.2840720266422664
17356.0,26048.0,-0.39912164154585494
17367.0,26034.0,-0.5048011332315908
17377.0,26014.0,-0.5972853780361643
17387.0,26012.0,-0.6733072588243766
17397.0,26007.0,-0.7303508555447625
17407.0,26012.0,-0.7667889185743367
17416.0,26013.0,-0.781956442473918
17426.0,26023.0,-0.7761598112815815
17436.0,26018.0,-0.750626799457482
17446.0,26023.0,-0.7074055273916904
17456.0,26044.0,-0.6492206401002492
17467.0,26061.0,-0.5792958125179141
17477.0,26059.0,-0.5011562539632631
17487.0,26062.0,-0.41842918867310774
17497.0,26070.0,-0.33465785309427626
17507.0,26075.0,-0.25313740057179457
17516.0,26076.0,-0.17677630059279623
17526.0,26092.0,-0.10798579017324232
17536.0,26086.0,-0.04859998069338214
17546.0,26091.0,0.00017094930185753972
17556.0,26094.0,0.03775329899324581
17567.0,26098.0,0.06418921743310525
17577.0,26092.0,0.08008535051888485
17587.0,26088.0,0.08653385739007532
17597.0,26089.0,0.08501098203848577
17607.0,26087.0,0.07726106363225971
17617.0,26077.0,0.06517465539913853
17626.0,26081.0,0.05066886569949004
17636.0,26080.0,0.03557776150972808
17646.0,26071.0,0.021559769275157258
17656.0,26079.0,0.010027049554566299
17667.0,26077.0,0.0021001330993243965
17677.0,26085.0,-0.0014108728000024225
17687.0,26085.0,-5.061156791215534e-07
17697.0,26082.0,0.006557436258951199
17707.0,26093.0,0.018249225396618766
17717.0,26094.0,0.034869451462513745
17727.0,26098.0,0.05607292489260756
17736.0,26100.0,0.08142393564338986
17746.0,26100.0,0.11043694791996078
17756.0,26092.0,0.14260516209880697
17767.0,26105.0,0.17741675889712288
17777.0,26108.0,0.21436118826868314
17787.0,26115.0,0.25292719941254627
17797.0,26106.0,0.29259148001056984
17807.0,26102.0,0.33279659909107245
17817.0,26111.0,0.3729212047279029
17827.0,26109.0,0.4122497042868201
17836.0,26119.0,0.44994841418833387
17846.0,26118.0,0.485051570863999
17856.0,26113.0,0.5164577522272489
17867.0,26119.0,0.5429371870961569
17877.0,26121.0,0.5631519527282268
17887.0,26119.0,0.5756913114379049
17897.0,26122.0,0.5791226577684865
17907.0,26118.0,0.5720569197969625
17917.0,26120.0,0.553226754190464
17927.0,26115.0,0.5215754915218503
17937.0,26122.0,0.47635391117632503
17946.0,26120.0,0.4172202127403764
17956.0,26122.0,0.34433580856383655
17967.0,26111.0,0.25844707998014566
17977.0,26127.0,0.16094272113896999
17987.0,26117.0,0.053876740966459516
17997.0,26102.0,-0.06005309662760573
18007.0,26101.0,-0.1775801476765412
18017.0,26072.0,-0.2949998238152878
18027.0,26060.0,-0.4083510785280202
18037.0,26040.0,-0.5136352675699168
18047.0,26024.0,-0.6070529565556231
18056.0,26016.0,-0.68523587840857
18067.0,26014.0,-0.7454518083497074
18077.0,26007.0,-0.7857642846931558
18087.0,26010.0,-0.8051353815733019
18097.0,26020.0,-0.8034658940551177
18107.0,26031.0,-0.7815731191205647
18117.0,26032.0,-0.7411129361719876
18127.0,26041.0,-0.6844581175661291
18137.0,26051.0,-0.6145459996286067
18147.0,26055.0,-0.5347072810032135
18156.0,26067.0,-0.44848672236986203
18167.0,26074.0,-0.3594660424892263
18177.0,26071.0,-0.27109832387741917
18187.0,26081.0,-0.18656109945824403
18197.0,26091.0,-0.10863213176185273
18207.0,26090.0,-0.03958993566519995
18217.0,26102.0,0.018858511352024463
18227.0,26105.0,0.06561980945722036
18237.0,26098.0,0.10022342573274522
18247.0,26097.0,0.12279764682068389
18257.0,26101.0,0.13401533817870065
18267.0,26097.0,0.1350161100826978
18277.0,26094.0,0.127311971157194
18287.0,26085.0,0.11268277049221426
18297.0,26092.0,0.09306841486241793
18307.0,26082.0,0.07046571016077424
18317.0,26092.0,0.046836390530861215
18327.0,26088.0,0.02402992305283297
18337.0,26078.0,0.0037219058851751577
18347.0,26092.0,-0.012632174365392535
18357.0,26090.0,-0.02382787597241061
18368.0,26085.0,-0.028928577738776995
18377.0,26092.0,-0.027271233829709616
18387.0,26093.0,-0.01846428470071135
18397.0,26085.0,-0.002379777637166284
18407.0,26095.0,0.020858954914390535
18417.0,26099.0,0.050893608473831224
18427.0,26102.0,0.0871507408283829
18437.0,26108.0,0.12886280064587108
18447.0,26104.0,0.17508682524960117
18457.0,26113.0,0.2247184875369925
18468.0,26112.0,0.27650140447133026
18477.0,26117.0,0.3290330492444809
18487.0,26111.0,0.38076918116652625
18497.0,26104.0,0.43003004627493663
18507.0,26120.0,0.4750143551427401
18517.0,26115.0,0.513828512333582
18527.0,26123.0,0.5445359411551203
18537.0,26121.0,0.5652267172504656
18547.0,26130.0,0.5741048782941337
18557.0,26131.0,0.5695893441617296
18568.0,26123.0,0.5504226331517498
18578.0,26138.0,0.515780397131203
18587.0,26131.0,0.46537460507264994
18597.0,26131.0,0.39954223711758535
18607.0,26134.0,0.3193099453788413
18617.0,26143.0,0.22642482348764212
18627.0,26120.0,0.12334116854044384
18637.0,26116.0,0.013153773639032959
18647.0,26096.0,-0.10052632727747819
18657.0,26070.0,-0.21374836656383348
18668.0,26065.0,-0.32243639006965397
18678.0,26044.0,-0.42262164088206206
18687.0,26041.0,-0.5106708078027108
18697.0,26034.0,-0.5834906288034816
18707.0,26028.0,-0.6386938819824387
18717.0,26026.0,-0.6747165004492588
18727.0,26028.0,-0.6908795085903228
18737.0,26041.0,-0.6873931286134676
18747.0,26049.0,-0.6653054909471564
18757.0,26048.0,-0.6264046793918421
18768.0,26054.0,-0.5730867454550892
18778.0,26073.0,-0.5082017274346157
18788.0,26074.0,-0.4348880428587036
18797.0,26080.0,-0.35640620406138807
18807.0,26088.0,-0.27598306005041856
18817.0,26071.0,-0.1966746248078072
18827.0,26090.0,-0.12125010350101163
18837.0,26101.0,-0.0520951269835743
18847.0,26107.0,0.00886765505258956
18857.0,26111.0,0.06023752130565412
18868.0,26106.0,0.10116773686739208
18878.0,26109.0,0.13136683127363036
18888.0,26104.0,0.151070578440719
18898.0,26111.0,0.16098997739882254
18907.0,26110.0,0.16224129793061612
18917.0,26095.0,0.15626311508681404
18927.0,26101.0,0.14472512418662573
18937.0,26099.0,0.1294354739395499
18947.0,26099.0,0.11225412121968949
18957.0,26110.0,0.09501689840470674
18968.0,26108.0,0.07947054178759147
18978.0,26096.0,0.06721561697157717
18988.0,26107.0,0.05965419059455006
18998.0,26096.0,0.057942177603919884
19008.0,26109.0,0.06294873627076325
19017.0,26109.0,0.07522436422726483
19027.0,26104.0,0.09497713481229073
19037.0,26101.0,0.12205574058820472
19047.0,26109.0,0.15594017227637313
19057.0,26105.0,0.19574369363641406
19068.0,26123.0,0.24022965313443306
19078.0,26121.0,0.287843608930809
19088.0,26118.0,0.3367580050401585
19098.0,26125.0,0.3849260031952044
19108.0,26125.0,0.430143420006193
19117.0,26130.0,0.4701197392301148
19127.0,26129.0,0.5025586436303814
19137.0,26129.0,0.5252472499131237
19147.0,26133.0,0.5361529157565327
19157.0,26134.0,0.5335262831198327
19168.0,26138.0,0.516007836608974
19178.0,26140.0,0.48273281574280197
19188.0,26137.0,0.43342702611523987
19198.0,26133.0,0.36848510723030237
19208.0,26139.0,0.28902347889033553
19218.0,26148.0,0.19690081037861126
19227.0,26138.0,0.09469710930545605
19237.0,26119.0,-0.014359431832592657
19247.0,26100.0,-0.12652475546212366
19257.0,26081.0,-0.2377262320393652
19268.0,26068.0,-0.3437888936446427
19278.0,26058.0,-0.4406783512914758
19288.0,26044.0,-0.5247380934859244
19298.0,26030.0,-0.5929016706745376
19308.0,26043.0,-0.6428630209674068
19318.0,26036.0,-0.6731918063056934
19327.0,26042.0,-0.6833872733423089
19337.0,26054.0,-0.6738717611628844
19347.0,26050.0,-0.645930246418204
19357.0,26058.0,-0.6016051193318692
19368.0,26076.0,-0.5435563070662097
19378.0,26079.0,-0.4748972630135374
19388.0,26082.0,-0.3990189236465254
19398.0,26088.0,-0.31941416800955463
19408.0,26089.0,-0.23951202998857304
19418.0,26094.0,-0.16252640592283057
19428.0,26103.0,-0.09132137608086394
19437.0,26122.0,-0.02829520083066402
19447.0,26122.0,0.024712254448939666
19457.0,26112.0,0.06648069317178273
19468.0,26109.0,0.0964327961377327
19478.0,26118.0,0.11462093249464064
19488.0,26116.0,0.12168444200530101
19498.0,26114.0,0.11878442257000732
19508.0,26112.0,0.10751990253438941
19518.0,26107.0,0.08982885981171489
19528.0,26108.0,0.06787925379114573
19538.0,26100.0,0.04395631374290854
19547.0,26105.0,0.020352192481030196
19557.0,26102.0,-0.0007367868970345757
19568.0,26105.0,-0.01730171165522979
19578.0,26099.0,-0.027599890504444266
19588.0,26109.0,-0.030220432259718263
19598.0,26106.0,-0.024136487735957227
19608.0,26105.0,-0.008744715581415628
19618.0,26096.0,0.01610742275906969
19628.0,26115.0,0.05010798186800333
19638.0,26114.0,0.09248353724200291
19648.0,26122.0,0.14201967463341353
19657.0,26123.0,0.19709575253337921
19668.0,26122.0,0.25572968857169726
19678.0,26126.0,0.3156308324720933
19688.0,26118.0,0.3742620815301868
19698.0,26135.0,0.4289145630534312
19708.0,26133.0,0.47679822705618524
19718.0,26140.0,0.5151488747343291
19728.0,26137.0,0.541348451712607
19738.0,26143.0,0.5530538077655313
19748.0,26149.0,0.5483291521230269
19757.0,26146.0,0.5257764697535096
19768.0,26150.0,0.4846560137546742
19778.0,26145.0,0.4249877727392653
19788.0,26156.0,0.3476250108597326
19798.0,26152.0,0.25429073564175964
19808.0,26146.0,0.14756665263385352
19818.0,26136.0,0.030824426528722446
19828.0,26110.0,-0.09190629868331836
19838.0,26098.0,-0.21613000990786502
19848.0,26079.0,-0.3371248406740295
19858.0,26062.0,-0.4502098331156082
19868.0,26045.0,-0.5510174268599215
19878.0,26036.0,-0.6357482453794335
19888.0,26031.0,-0.7013863446655941
19898.0,26024.0,-0.7458566958449739
19908.0,26042.0,-0.7681128349692993
19918.0,26049.0,-0.768150662755869
19928.0,26055.0,-0.7469538989640218
19938.0,26055.0,-0.7063846139921933
19948.0,26069.0,-0.6490344118942785
19958.0,26070.0,-0.5780494505624914
19968.0,26086.0,-0.49694044269883275
19978.0,26094.0,-0.40938877085094383
19988.0,26092.0,-0.3190602762677268
19998.0,26097.0,-0.2294369946556262
20008.0,26103.0,-0.14367307391071618
20018.0,26116.0,-0.0644768307092114
20028.0,26122.0,0.005979813118486314
20038.0,26118.0,0.0661211475088965
20048.0,26121.0,0.1149930128679941
20058.0,26116.0,0.15225349587655151
20069.0,26124.0,0.17813351323032625
20078.0,26122.0,0.19337391762468806
20088.0,26114.0,0.19914504318912798
20098.0,26107.0,0.19695417057885325
20108.0,26117.0,0.18854825047580143
20118.0,26113.0,0.17582054781509657
20128.0,26121.0,0.1607270891391066
20138.0,26117.0,0.14521375067665376
20148.0,26115.0,0.1311517839971654
20158.0,26117.0,0.1202796915532172
20169.0,26114.0,0.11415095896612178
20179.0,26122.0,0.11408811197077395
20188.0,26123.0,0.12114291424764619
20198.0,26119.0,0.1360610119946428
20208.0,26115.0,0.15924907787716122
20218.0,26121.0,0.19074493860970637
20228.0,26125.0,0.2301941632299312
20238.0,26130.0,0.27683661510013086
20248.0,26129.0,0.3295039442141773
20258.0,26123.0,0.38662770103424277
20269.0,26135.0,0.44625955606988565
20279.0,26127.0,0.5061077306931253
20288.0,26142.0,0.5635940458428725
20298.0,26144.0,0.6159337419696708
20308.0,26138.0,0.660237157371927
20318.0,26141.0,0.6936305458123725
20328.0,26154.0,0.7133937299312952
20338.0,26155.0,0.7171119612535906
20348.0,26164.0,0.7028352553322271
20358.0,26158.0,0.6692334154685193
20369.0,26158.0,0.6157333345018424
20379.0,26163.0,0.5426269047634343
20389.0,26163.0,0.451139712176023
20398.0,26165.0,0.343450317212967
20408.0,26146.0,0.22264889269064872
20418.0,26124.0,0.09262665085765386
20428.0,26109.0,-0.0421038372731045
20438.0,26091.0,-0.17664594250192153
20448.0,26068.0,-0.3059942740629433
20458.0,26053.0,-0.42532505666047893
20469.0,26038.0,-0.5302775351006538
20479.0,26034.0,-0.6172027014552446
20489.0,26025.0,-0.6833590252916982
20499.0,26032.0,-0.7270410380211827
20508.0,26042.0,-0.7476341035888343
20518.0,26044.0,-0.7455969842962419
20528.0,26044.0,-0.722381384062162
20538.0,26064.0,-0.680301444735614
20548.0,26060.0,-0.6223664087163279
20558.0,26070.0,-0.552089584168657
20569.0,26077.0,-0.47328647849045474
20579.0,26076.0,-0.38987306043250713
20589.0,26095.0,-0.30567275697347823
20599.0,26095.0,-0.22423959899780874
20608.0,26102.0,-0.14870493461906753
20618.0,26107.0,-0.08165490942859435
20628.0,26104.0,-0.02504398609918925
20638.0,26105.0,0.01985345045775372
20648.0,26115.0,0.05245456196090306
20659.0,26107.0,0.0728455878833118
20669.0,26111.0,0.08172840991842471
20679.0,26099.0,0.0803393577889977
20689.0,26101.0,0.07034570112903392
20699.0,26098.0,0.053727921983722546
20708.0,26100.0,0.032656438658882
20718.0,26092.0,0.009369644994173813
20728.0,26082.0,-0.01394169730279834
20738.0,26083.0,-0.035238079448043066
20748.0,26084.0,-0.05271545861210843
20759.0,26094.0,-0.06486364452819945
20769.0,26101.0,-0.07049773614136451
20779.0,26103.0,-0.06876826663981425
20789.0,26092.0,-0.05915966840639346
20799.0,26090.0,-0.041484886893533864
20809.0,26105.0,-0.01587795513122293
20818.0,26108.0,0.017217493350078068
20828.0,26101.0,0.057063663562521336
20838.0,26104.0,0.10264483806757835
20848.0,26102.0,0.1526831574358024
20859.0,26110.0,0.20565695884035015
20869.0,26121.0,0.25982576607163305
20879.0,26112.0,0.31326331715573724
20889.0,26112.0,0.36389747931530847
20899.0,26116.0,0.4095570972448816
20909.0,26119.0,0.44802895743029864
20918.0,26119.0,0.4771283562743803
20928.0,26123.0,0.49478398375902527
20938.0,26113.0,0.4991354674416357
20949.0,26124.0,0.48864136756878124
20959.0,26131.0,0.46219491564097054
20969.0,26137.0,0.4192415847803237
20979.0,26140.0,0.3598867254717068
20989.0,26123.0,0.2849774335303081
20999.0,26135.0,0.19614431268346236
21009.0,26124.0,0.09579386861535524
21018.0,26122.0,-0.012954050867498651
21028.0,26096.0,-0.126387535418513
21038.0,26069.0,-0.2403815788215191
21049.0,26064.0,-0.3506237832767735
21059.0,26045.0,-0.45286601868917115
21069.0,26028.0,-0.5431778151428512
21079.0,26026.0,-0.6181793287549777
21089.0,26013.0,-0.6752347081176712
21099.0,26022.0,-0.7125902932898833
21109.0,26023.0,-0.729447958245769
21118.0,26029.0,-0.7259713768489435
21128.0,26038.0,-0.7032300858072812
21139.0,26041.0,-0.6630912134371901
21149.0,26055.0,-0.608071290638989
21159.0,26064.0,-0.5411617370650644
21169.0,26062.0,-0.4656422512628387
21179.0,26081.0,-0.38489578693759435
21189.0,26073.0,-0.30223645257431064
21199.0,26080.0,-0.2207584856017742
21209.0,26090.0,-0.14321115227293926
21218.0,26093.0,-0.07190174304566577
21228.0,26096.0,-0.008628226683236472
21239.0,26090.0,0.04535678524818016
21249.0,26097.0,0.08935129493728396
21259.0,26100.0,0.12318232042384118
21269.0,26095.0,0.1471625890809779
21279.0,26102.0,0.16202971455069848
21289.0,26090.0,0.16887159201128976
21299.0,26097.0,0.16904264241768807
21309.0,26097.0,0.1640764230498082
21318.0,26097.0,0.15559948174937863
21329.0,26085.0,0.14524944244553803
21339.0,26085.0,0.13459992777101124
21349.0,26090.0,0.1250969668253277
21359.0,26095.0,0.11801214109302104
21369.0,26096.0,0.11441402382941172
21379.0,26098.0,0.11515441089825076
21389.0,26091.0,0.12086382304206761
21399.0,26108.0,0.1319521316832697
21409.0,26102.0,0.14861171844134236
21419.0,26102.0,0.17082019787491118
21429.0,26105.0,0.19833948072905663
21439.0,26095.0,0.23071025687398725
21449.0,26109.0,0.267244308572098
21459.0,26101.0,0.30701876867121397
21469.0,26110.0,0.3488759807775176
21479.0,26107.0,0.39143129819159017
21489.0,26104.0,0.4330906242967083
21499.0,26117.0,0.47207998502895954
21510.0,26112.0,0.506489457732974
21519.0,26112.0,0.5343322666247445
21529.0,26115.0,0.5536183049948665
21539.0,26112.0,0.5624413477682046
21549.0,26124.0,0.559079115777103
21559.0,26121.0,0.5421031370396698
21569.0,26120.0,0.5104918935238795
21579.0,26121.0,0.463738579332449
21589.0,26115.0,0.4019450927955944
21599.0,26133.0,0.32589476742472884
21610.0,26121.0,0.23709520884725513
21619.0,26123.0,0.1377799644977517
21629.0,26112.0,0.030857395242133254
21639.0,26078.0,-0.08020018064243938
21649.0,26073.0,-0.19152470479743317
21659.0,26056.0,-0.29906476554096884
21669.0,26041.0,-0.3988219508422117
21679.0,26022.0,-0.48708999509895234
21689.0,26017.0,-0.5606765278459575
21700.0,26015.0,-0.6170879258660612
21710.0,26018.0,-0.6546612745378672
21719.0,26021.0,-0.6726349566755097
21729.0,26027.0,-0.6711576814322764
21739.0,26028.0,-0.6512417203090107
21749.0,26036.0,-0.6146690896778696
21759.0,26043.0,-0.563860349209991
21769.0,26060.0,-0.5017163437012869
21779.0,26051.0,-0.43144471674167895
21790.0,26059.0,-0.3563835526115467
21800.0,26070.0,-0.27983170689370335
21810.0,26077.0,-0.2048917211645392
21819.0,26083.0,-0.1343308643803734
21829.0,26089.0,-0.07046747925659592
21839.0,26085.0,-0.01508944294051943
21849.0,26084.0,0.030591607156279055
21859.0,26090.0,0.06595108097744981
21869.0,26095.0,0.09093137650784089
21879.0,26091.0,0.10599506478652891
21890.0,26078.0,0.1120540453328
21900.0,26082.0,0.11037895566190326
21910.0,26082.0,0.10249718452547635
21919.0,26078.0,0.09008926920965088
21929.0,26076.0,0.07489090535364969
21939.0,26076.0,0.0586051955059661
21949.0,26076.0,0.04282890610001881
21959.0,26074.0,0.028995572078158588
21969.0,26084.0,0.01833646870471147
21980.0,26078.0,0.011858279692879652
21990.0,26084.0,0.01033418645882241
22000.0,26076.0,0.014304258365494647
22010.0,26085.0,0.024082143284902643
22019.0,26090.0,0.03976646681177391
22029.0,26086.0,0.06125495115871045
22039.0,26085.0,0.08825808982851653
22049.0,26095.0,0.12031006549777688
22059.0,26096.0,0.15677666895510822
22070.0,26097.0,0.19686011481712093
22080.0,26089.0,0.23959991840608305
22090.0,26098.0,0.2838707931982666
22100.0,26095.0,0.32838183634999946
22109.0,26105.0,0.37168225748408207
22119.0,26101.0,0.4121769548636971
22129.0,26094.0,0.4481532676697104
22139.0,26108.0,0.47782051977531054
22149.0,26100.0,0.4993651318331826
22159.0,26112.0,0.5110229758472994
22170.0,26111.0,0.5111672624109599
22180.0,26103.0,0.4984072589029124
22190.0,26111.0,0.4716921882329801
22200.0,26108.0,0.43041524701350115
22209.0,26118.0,0.37451229376418615
22219.0,26123.0,0.30454665996838187
22229.0,26111.0,0.22176753879859085
22239.0,26115.0,0.12812808840878573
22249.0,26099.0,0.026252510968965283
22260.0,26091.0,-0.08065282029411701
22270.0,26076.0,-0.18894306457897295
22280.0,26042.0,-0.29472606224324854
22290.0,26038.0,-0.3940861680915191
22300.0,26024.0,-0.4833190600085369
22309.0,26021.0,-0.5591537118318927
22319.0,26011.0,-0.6189420699290353
22329.0,26007.0,-0.6608033128984663
22339.0,26017.0,-0.6837140609639569
22350.0,26015.0,-0.6875399463766713
22360.0,26028.0,-0.6730095657530274
22370.0,26032.0,-0.6416376533035616
22380.0,26031.0,-0.5956080119633563
22390.0,26046.0,-0.5376275747545898
22400.0,26050.0,-0.47076197940131226
22409.0,26060.0,-0.3982625329797205
22419.0,26058.0,-0.32339489773156255
22429.0,26068.0,-0.24927895135506312
22440.0,26075.0,-0.17874659298860104
22450.0,26081.0,-0.1142223568061279
22460.0,26086.0,-0.0576317276145832
22470.0,26082.0,-0.01034202470819041
22480.0,26082.0,0.02686148059559379
22490.0,26083.0,0.05376558276939344
22500.0,26079.0,0.07069028335282072
22509.0,26087.0,0.0784274773661564
22519.0,26077.0,0.07816308619843079
22529.0,26077.0,0.07138763151733309
22540.0,26078.0,0.05980035714699628
22550.0,26079.0,0.045212530414254486
22560.0,26071.0,0.029454694255348097
22570.0,26078.0,0.014291037050988553
22580.0,26069.0,0.0013434937489536626
22590.0,26071.0,-0.007971746846543889
22599.0,26075.0,-0.012492911474629977
22609.0,26070.0,-0.011344829387722985
22619.0,26074.0,-0.003954281855877993
22630.0,26080.0,0.009950687498508389
22640.0,26078.0,0.03035583224687667
22650.0,26097.0,0.05698695522640819
22660.0,26093.0,0.0893419863252826
22670.0,26083.0,0.1267220384895511
22680.0,26096.0,0.16825634425237257
22690.0,26102.0,0.21292061047793936
22699.0,26091.0,0.2595507480386298
22709.0,26102.0,0.3068530465399826
22720.0,26092.0,0.3534124038716364
22730.0,26104.0,0.3977027045827862
22740.0,26100.0,0.4381042942962973
22750.0,26108.0,0.4729320389170458
22760.0,26103.0,0.5004753780640617
22770.0,26105.0,0.5190505112585215
22780.0,26103.0,0.527064845823432
22790.0,26103.0,0.5230942072337431
22799.0,26118.0,0.505972498050563
22810.0,26112.0,0.4748902976826547
22820.0,26110.0,0.4294943459766083
22830.0,26115.0,0.36997748358769705
22840.0,26113.0,0.29714949345361397
22850.0,26118.0,0.21248003788488617
22860.0,26119.0,0.11810371803935049
22870.0,26098.0,0.016776506770126036
22880.0,26081.0,-0.08822409225074243
22890.0,26059.0,-0.19325393499072518
22900.0,26054.0,-0.29449943819665053
22910.0,26040.0,-0.38819704715161507
22920.0,26020.0,-0.4708544864172742
22930.0,26018.0,-0.5394555493592647
22940.0,26019.0,-0.5916316481414514
22950.0,26017.0,-0.6257864464944495
22960.0,26011.0,-0.6411663001349558
22970.0,26024.0,-0.637875122733167
22980.0,26033.0,-0.6168356699314316
22991.0,26040.0,-0.5797032226261971
23000.0,26044.0,-0.5287428494097359
23010.0,26046.0,-0.4666838097874769
23020.0,26053.0,-0.39656257771774006
23030.0,26059.0,-0.3215623938456719
23040.0,26074.0,-0.24485547973457575
23050.0,26077.0,-0.169454836225198
23060.0,26075.0,-0.0980839717956292
23070.0,26080.0,-0.03307177957049359
23080.0,26084.0,0.023724405176262158
23091.0,26085.0,0.07096828430903863
23100.0,26094.0,0.10786814247595396
23110.0,26094.0,0.1341750537833294
23120.0,26087.0,0.15015561211412087
23130.0,26088.0,0.15654002691864896
23140.0,26090.0,0.15444933975670494
23150.0,26078.0,0.14530791376723542
23160.0,26072.0,0.13074804752889949
23170.0,26084.0,0.11251444231301563
23181.0,26075.0,0.09237650804013295
23190.0,26083.0,0.07205343677886682
23200.0,26077.0,0.05315260758982097
23210.0,26073.0,0.03712002555742468
23220.0,26080.0,0.0252021635246119
23230.0,26082.0,0.01841932794185486
23240.0,26080.0,0.017549568792835455
23250.0,26086.0,0.02312003941788789
23260.0,26077.0,0.03540220838207707
23271.0,26079.0,0.054409052195522105
23281.0,26087.0,0.07989485533731208
23290.0,26085.0,0.1113594396832077
23300.0,26087.0,0.14805756287213173
23310.0,26086.0,0.18901305529322585
23320.0,26096.0,0.23303798601756665
23330.0,26101.0,0.27875779184278654
23340.0,26105.0,0.32464169112311814
23350.0,26097.0,0.36903559618712006
23361.0,26095.0,0.410195634200406
23371.0,26102.0,0.44632449207999286
23380.0,26098.0,0.4756159817551682
23390.0,26108.0,0.4963122557566223
23400.0,26099.0,0.5067746626340199
23410.0,26107.0,0.5055666011179072
23420.0,26112.0,0.4915454617450371
23430.0,26113.0,0.46395896726108604
23440.0,26113.0,0.4225381904330654
23451.0,26110.0,0.36757743308890095
23461.0,26115.0,0.299991604104313
23471.0,26118.0,0.22134284605538662
23480.0,26114.0,0.1338277353904771
23490.0,26095.0,0.04021597379515106
23500.0,26069.0,-0.05626449206679771
23510.0,26065.0,-0.15209093448145708
23520.0,26051.0,-0.243642180437166
23530.0,26042.0,-0.32740787591175446
23541.0,26033.0,-0.40019299219304566
23551.0,26019.0,-0.4593030331850398
23561.0,26016.0,-0.5026966046096946
23571.0,26022.0,-0.5290928960062756
23580.0,26029.0,-0.5380251823188318
23590.0,26032.0,-0.5298386720012483
23600.0,26038.0,-0.5056386834171233
23610.0,26043.0,-0.46719918207388517
23620.0,26048.0,-0.4168421401997186
23631.0,26061.0,-0.3572975604593366
23641.0,26052.0,-0.2915536874128416
23651.0,26064.0,-0.22270603515370044
23661.0,26068.0,-0.15381144153040877
23671.0,26073.0,-0.0877511257025138
23680.0,26086.0,-0.02710678890049891
23690.0,26081.0,0.02594484462886313
23700.0,26088.0,0.06971330843707517
23710.0,26081.0,0.10304755551264755
23720.0,26091.0,0.12536032091701535
23731.0,26086.0,0.13662548053891668
23741.0,26089.0,0.13735059864296806
23751.0,26081.0,0.1285265397302889
23761.0,26078.0,0.11155693692351043
23770.0,26084.0,0.08817227259084987
23780.0,26075.0,0.06033416491049769
23790.0,26069.0,0.030134434291132838
23800.0,26069.0,-0.00030697452679976695
23810.0,26063.0,-0.028939930997744022
23821.0,26074.0,-0.05387224632159172
23831.0,26070.0,-0.07344469818011126
23841.0,26056.0,-0.08629304855142886
23851.0,26064.0,-0.0913978219633171
23861.0,26066.0,-0.08812001498402029
23870.0,26072.0,-0.07621985799915953
23880.0,26077.0,-0.05585906755511216
23890.0,26066.0,-0.027590799458499543
23900.0,26078.0,0.0076585301332430175
23911.0,26076.0,0.048614349573914035
23921.0,26076.0,0.09368683458841502
23931.0,26079.0,0.1410125473564915
23941.0,26071.0,0.18850605059161463
23951.0,26086.0,0.23392401313120054
23961.0,26095.0,0.274944240590522
23970.0,26095.0,0.3092585425150731
23980.0,26093.0,0.33467347545582465
23990.0,26085.0,0.34921195484423845
24001.0,26090.0,0.35121263647416884
24011.0,26104.0,0.3394275957671844
24021.0,26099.0,0.31311706709256754
24031.0,26097.0,0.27213436055690504
24041.0,26102.0,0.21699086160153636
24051.0,26104.0,0.14889213653325287
24060.0,26101.0,0.06973732245859124
24070.0,26094.0,-0.017926333994543273
24080.0,26069.0,-0.1109999521895392
24091.0,26059.0,-0.2059798399450522
24101.0,26040.0,-0.2991443995208609
24111.0,26034.0,-0.3867633753031488
24121.0,26030.0,-0.4653097261697199
24131.0,26009.0,-0.5316570689199126
24141.0,26014.0,-0.5832492210810275
24151.0,26014.0,-0.6182306394562483
24160.0,26009.0,-0.6355294159720416
24170.0,26026.0,-0.6348896230590622
24181.0,26014.0,-0.6168550902486097
24191.0,26027.0,-0.5827099905622835
24201.0,26032.0,-0.5343827918313433
24211.0,26052.0,-0.47432083726625485
24221.0,26045.0,-0.40534527942285203
24231.0,26050.0,-0.3304984682343501
24241.0,26059.0,-0.25289406954499977
24251.0,26054.0,-0.17557540388321663
24260.0,26072.0,-0.10138442631524436
24271.0,26075.0,-0.03284366994142492
24281.0,26078.0,0.027945013576665376
24291.0,26080.0,0.07937984879188727
24301.0,26089.0,0.12041252899982574
24311.0,26095.0,0.15057335058573953
24321.0,26075.0,0.16996638366093914
24331.0,26081.0,0.17923441629629713
24341.0,26078.0,0.1794981721152532
24350.0,26086.0,0.17227824091546512
24361.0,26087.0,0.15940651718709453
24371.0,26077.0,0.14292926237837705
24381.0,26073.0,0.12500207914263792
24391.0,26068.0,0.10777992105571134
24401.0,26072.0,0.09330925552376935
24411.0,26068.0,0.083430332226396
24421.0,26070.0,0.07969502323714085
24431.0,26074.0,0.08330281195186581
24441.0,26080.0,0.09505545053360505
24451.0,26081.0,0.11532866703306244
24461.0,26080.0,0.14405742179312844
24471.0,26081.0,0.18073143031882583
24481.0,26082.0,0.2244000910684703
24491.0,26087.0,0.2736883420853591
24501.0,26089.0,0.32682554063892705
24511.0,26089.0,0.381688617455093
24521.0,26086.0,0.43586024784582206
24531.0,26092.0,0.48670363932626265
24542.0,26097.0,0.5314564416075732
24551.0,26101.0,0.5673449121434405
24561.0,26097.0,0.5917160861302974
24571.0,26106.0,0.6021831575235185
24581.0,26105.0,0.5967785239694593
24591.0,26117.0,0.5741077775912875
24601.0,26130.0,0.5334946261482254
24611.0,26125.0,0.4751019586761711
24621.0,26127.0,0.400010773601385
24632.0,26120.0,0.31023980711551064
24641.0,26107.0,0.20869450242696239
24651.0,26090.0,0.09904168886274307
24661.0,26058.0,-0.014484913066647771
24671.0,26047.0,-0.12733315693506939
24681.0,26033.0,-0.23491078093426565
24691.0,26019.0,-0.33286609710180415
24701.0,26015.0,-0.417346581230625
24711.0,26002.0,-0.4852162970627772
24722.0,26004.0,-0.5342178920257998
24732.0,26009.0,-0.5630694160589444
24741.0,26023.0,-0.5714921319903934
24751.0,26025.0,-0.5601735159977757
24761.0,26020.0,-0.5306769665535616
24771.0,26029.0,-0.4853117263115301
24781.0,26045.0,-0.4269735840951041
24791.0,26049.0,-0.3589652777119996
24801.0,26047.0,-0.2848077261102961
24812.0,26057.0,-0.20805421460701995
24822.0,26066.0,-0.132116499988262
24832.0,26069.0,-0.06010875951245874
24841.0,26072.0,0.005284856844991471
24851.0,26078.0,0.061913488863109774
24861.0,26074.0,0.10823014886927027
24871.0,26078.0,0.14332874795664446
24881.0,26087.0,0.16694866122149518
24891.0,26080.0,0.17944852812677575
24901.0,26076.0,0.18175051698936298
24912.0,26069.0,0.17525748840128713
24922.0,26068.0,0.1617493662297729
24931.0,26070.0,0.1432681375411387
24941.0,26074.0,0.12200013652347738
24951.0,26057.0,0.10016074227732044
24961.0,26062.0,0.0798844115729551
24971.0,26061.0,0.06312412003811452
24981.0,26072.0,0.05156529531087704
24991.0,26068.0,0.04655636873927719
25002.0,26063.0,0.04905364317163567
25012.0,26061.0,0.05957750304957902
25022.0,26059.0,0.07818059549000396
25031.0,26069.0,0.1044320988931441
25041.0,26076.0,0.13742175956504166
25051.0,26063.0,0.1757836520738475
25061.0,26068.0,0.2177371994324731
25071.0,26073.0,0.2611448890274443
25081.0,26078.0,0.30358869434850033
25092.0,26078.0,0.34246580038719227
25102.0,26075.0,0.3751009445898439
25112.0,26082.0,0.398871830480655
25122.0,26089.0,0.4113447629859862
25131.0,26092.0,0.4104162258267005
25141.0,26081.0,0.3944526840230081
25151.0,26094.0,0.362419384891941
25161.0,26094.0,0.3139901534876013
25171.0,26093.0,0.24963022631363246
25182.0,26107.0,0.17064176378566898
25192.0,26085.0,0.07915987846806606
25202.0,26076.0,-0.021911460938722965
25212.0,26058.0,-0.12902786723068949
25221.0,26041.0,-0.2381914599596394
25231.0,26024.0,-0.34518148014280164
25241.0,26001.0,-0.44580847774571564
25251.0,25996.0,-0.5361690541137553
25261.0,25988.0,-0.6128776064182542
25272.0,25989.0,-0.6732550437053033
25282.0,25990.0,-0.7154617391873722
25292.0,25984.0,-0.7385699050334302
25302.0,25992.0,-0.7425760989898278
25312.0,26000.0,-0.7283575256215775
25321.0,26008.0,-0.6975786420498893
25331.0,26012.0,-0.6525585795246988
25341.0,26015.0,-0.596112676307882
25351.0,26020.0,-0.5313807234788352
25362.0,26028.0,-0.4616517029772012
25372.0,26034.0,-0.39019271574875564
25382.0,26031.0,-0.32008924108139747
25392.0,26044.0,-0.2541031375919728
25402.0,26048.0,-0.1945531670231879
25411.0,26052.0,-0.143222073493576
25421.0,26059.0,-0.10129484933422404
25431.0,26044.0,-0.0693324514140217
25441.0,26052.0,-0.047282196705148716
25452.0,26051.0,-0.034521500034642855
25462.0,26047.0,-0.029928775113209946
25472.0,26045.0,-0.031975450930260066
25482.0,26037.0,-0.03883334866334465
25492.0,26038.0,-0.0484902777024845
25502.0,26041.0,-0.05886555919576712
25511.0,26044.0,-0.06791855502367997
25521.0,26037.0,-0.0737468217071826
25531.0,26031.0,-0.07467301782734724
25542.0,26043.0,-0.06931882305173445
25552.0,26039.0,-0.056662496625425676
25562.0,26050.0,-0.036078208429013874
25572.0,26043.0,-0.007358756484085137
25582.0,26045.0,0.02927525257677444
25592.0,26052.0,0.07317819410771587
25601.0,26055.0,0.12329447328775783
25611.0,26054.0,0.17818592821945758
25621.0,26056.0,0.23607069179404994
25632.0,26062.0,0.2948731730497074
25642.0,26063.0,0.35228593746119463
25652.0,26063.0,0.4058439931619992
25662.0,26067.0,0.45301119216923097
25672.0,26068.0,0.491278341737208
25682.0,26067.0,0.518272398996692
25692.0,26078.0,0.531875062369884
25701.0,26078.0,0.5303471226417238
25711.0,26077.0,0.5124520715608016
25722.0,26071.0,0.47757033619771694
25732.0,26082.0,0.42579598752693876
25742.0,26097.0,0.3580084383646049
25752.0,26094.0,0.2759082763221761
25762.0,26069.0,0.18200139169089957
25772.0,26058.0,0.07951769096011127
25782.0,26041.0,-0.027737411482258993
25792.0,26023.0,-0.13558723528811953
25801.0,26007.0,-0.2397250923625028
25812.0,25988.0,-0.33597132266343094
25822.0,25976.0,-0.4205236084928335
25832.0,25966.0,-0.49017819640701316
25842.0,25972.0,-0.5425031581860976
25852.0,25973.0,-0.5759522727440207
25862.0,25969.0,-0.5899166693614902
25872.0,25981.0,-0.5847172083093518
25882.0,25989.0,-0.5615433832672062
25891.0,25991.0,-0.5223466990937856
25902.0,26003.0,-0.46969882934433566
25912.0,26000.0,-0.406626220041798
25922.0,26004.0,-0.33643229166526345
25932.0,26014.0,-0.26251616589425025
25942.0,26029.0,-0.18819482755445066
25952.0,26027.0,-0.11653640566115472
25962.0,26030.0,-0.05021439135304173
25972.0,26040.0,0.008608231810619893
25982.0,26038.0,0.05835959819557618
25992.0,26042.0,0.09810158436422527
26002.0,26029.0,0.12753329085883763
26012.0,26033.0,0.14695743965697244
26022.0,26030.0,0.15721611646472078
26032.0,26033.0,0.15960449825909886
26042.0,26029.0,0.15576998703335873
26052.0,26017.0,0.1476021336085928
26062.0,26023.0,0.1371189269926588
26072.0,26022.0,0.1263566353008149
26082.0,26023.0,0.11726982132719747
26092.0,26020.0,0.11164485295630312
26102.0,26017.0,0.11102768508254882
26112.0,26021.0,0.11666676516976174
26122.0,26027.0,0.12947247894589556
26132.0,26029.0,0.14999313164586356
26142.0,26032.0,0.17840458274191048
26152.0,26026.0,0.2145091536754175
26162.0,26034.0,0.25774087413046204
26172.0,26035.0,0.3071768428852521
26182.0,26035.0,0.36155575307551735
26192.0,26030.0,0.4193045602196553
26202.0,26036.0,0.4785752033880414
26212.0,26045.0,0.5372949242141918
26222.0,26046.0,0.5932328867219188
26232.0,26055.0,0.6440820736135963
26242.0,26048.0,0.6875522389867196
26252.0,26056.0,0.721469324232069
26263.0,26060.0,0.7438779640632837
26272.0,26059.0,0.7531439068306921
26282.0,26065.0,0.7480516242446975
26292.0,26061.0,0.7278908487674314
26302.0,26062.0,0.6925254937332282
26312.0,26065.0,0.6424388676807845
26322.0,26067.0,0.5787492496008468
26332.0,26056.0,0.503189285589393
26342.0,26046.0,0.41804307881199104
26353.0,26030.0,0.32603892866850503
26363.0,26018.0,0.23020273528876217
26372.0,25996.0,0.13368375034550875
26382.0,25970.0,0.03956911474727315
26392.0,25951.0,-0.049293059504358784
26402.0,25938.0,-0.130442084118997
26412.0,25927.0,-0.20191046095602208
26422.0,25916.0,-0.2622830521008605
26432.0,25928.0,-0.31071393938401926
26443.0,25930.0,-0.34690871726445355
26453.0,25929.0,-0.37108043570088395
26463.0,25943.0,-0.38388694241340077
26472.0,25949.0,-0.3863565495698372
26482.0,25955.0,-0.3798078733266848
26492.0,25951.0,-0.3657684705063561
26502.0,25963.0,-0.3458956243016714
26512.0,25968.0,-0.32190139995429756
26522.0,25974.0,-0.2954829786711771
26532.0,25975.0,-0.26825834520096886
26543.0,25980.0,-0.24170679420787947
26553.0,25984.0,-0.21711384571624473
26563.0,25996.0,-0.19552158158125843
26572.0,25995.0,-0.17768811024613176
26582.0,25988.0,-0.1640620863129583
26592.0,25990.0,-0.15477705487018106
26602.0,25991.0,-0.14966585849085332
26612.0,25992.0,-0.1482917004856899
26622.0,25991.0,-0.14999237470333623
26633.0,25990.0,-0.15393543806256574
26643.0,25987.0,-0.1591821122078144
26653.0,25986.0,-0.16475654357724195
26663.0,25985.0,-0.16971586556693352
26672.0,25983.0,-0.17321600762845052
26682.0,25979.0,-0.1745683304812035
26692.0,25983.0,-0.17328235589009566
26702.0,25979.0,-0.16909016047330683
26712.0,25998.0,-0.16194941744022817
26723.0,25997.0,-0.15202548343461963
26733.0,26001.0,-0.1396576178162447
26743.0,25998.0,-0.1253172440850092
26753.0,26001.0,-0.1095646810672126
26763.0,26007.0,-0.09300712773435062
26772.0,26008.0,-0.07625885036583942
26782.0,26001.0,-0.0599049251944311
26792.0,26017.0,-0.04446986516009701
26802.0,26017.0,-0.03039157082798517
26812.0,26019.0,-0.018001762927328083
26823.0,26017.0,-0.007515778835600883
26833.0,26011.0,0.0009663156689041497
26843.0,26017.0,0.0074491269804573485
26853.0,26021.0,0.012026649384698433
