timestamp_ms,ir_value,ir_filtered
6899.0,25397.0,-0.09289574079736199
6909.0,25383.0,-0.061135583605719114
6919.0,25395.0,-0.03207329345507294
6930.0,25388.0,-0.007512900884680867
6940.0,25394.0,0.010802713580753742
6950.0,25388.0,0.02122863420395019
6960.0,25390.0,0.022274557123556887
6970.0,25385.0,0.012679466232592342
6980.0,25397.0,-0.008497442725640124
6990.0,25397.0,-0.041774357904135834
6999.0,25402.0,-0.08714465330764992
7009.0,25402.0,-0.14399346019355622
7019.0,25393.0,-0.21105311438361607
7030.0,25395.0,-0.28641267874992504
7040.0,25385.0,-0.36758840077255295
7050.0,25381.0,-0.45165423823528567
7060.0,25361.0,-0.5354254143678089
7070.0,25354.0,-0.6156805050070985
7080.0,25348.0,-0.6893986089637961
7090.0,25331.0,-0.7539827179720064
7099.0,25343.0,-0.8074415114299832
7109.0,25339.0,-0.8485081779817859
7119.0,25332.0,-0.8766853141553079
7130.0,25347.0,-0.8922158408209289
7140.0,25345.0,-0.8959869780860812
7150.0,25364.0,-0.8893806909511864
7160.0,25363.0,-0.8740929819196536
7170.0,25355.0,-0.8519509112198631
7180.0,25359.0,-0.824753300469096
7190.0,25358.0,-0.7941494958982803
7200.0,25353.0,-0.761559468469939
7209.0,25354.0,-0.7281335084553523
7219.0,25347.0,-0.6947470638770864
7230.0,25344.0,-0.6620225519731656
7240.0,25343.0,-0.6303663810092798
7250.0,25344.0,-0.6000077015354036
7260.0,25360.0,-0.5710277892826664
7270.0,25354.0,-0.5433768467938995
7280.0,25349.0,-0.51688416078262
7290.0,25359.0,-0.4912697709765621
7300.0,25352.0,-0.4661606572841061
7309.0,25362.0,-0.4411107644403638
7319.0,25355.0,-0.41562541540731957
7330.0,25353.0,-0.38919177134019295
7340.0,25358.0,-0.3613147524270986
7350.0,25353.0,-0.3315544740225827
7360.0,25360.0,-0.29956041393417115
7370.0,25358.0,-0.2650994351226075
7380.0,25360.0,-0.22807699134150441
7390.0,25360.0,-0.1885519043394251
7400.0,25356.0,-0.14674456971260985
7410.0,25361.0,-0.10303655435334408
7419.0,25368.0,-0.057958307274462564
7430.0,25367.0,-0.012163895575483556
7440.0,25368.0,0.03360361453237542
7450.0,25366.0,0.07855059401692296
7460.0,25383.0,0.12187185741084368
7470.0,25376.0,0.1627876988086216
7480.0,25372.0,0.20057331607611747
7490.0,25374.0,0.23457505368281836
7500.0,25377.0,0.2642142600784223
7510.0,25382.0,0.2889840296609225
7519.0,25381.0,0.3084411901230641
7530.0,25378.0,0.32219119277385394
7540.0,25369.0,0.3298640390789474
7550.0,25363.0,0.33108581186694397
7560.0,25373.0,0.3254580696144218
7570.0,25377.0,0.3125587010776203
7580.0,25373.0,0.2919693618026463
7590.0,25362.0,0.26332427812410875
7600.0,25375.0,0.22637378859036345
7610.0,25374.0,0.18106038436646818
7619.0,25376.0,0.12760360547718205
7630.0,25379.0,0.06658273683815213
7640.0,25373.0,-0.0009980271093046325
7650.0,25377.0,-0.07367558475307003
7660.0,25371.0,-0.14953462821284125
7670.0,25365.0,-0.22626037012470526
7680.0,25364.0,-0.3012380169609305
7690.0,25341.0,-0.3716937157289062
7700.0,25349.0,-0.4348642416465611
7710.0,25339.0,-0.488176052523938
7719.0,25338.0,-0.5294129660025751
7730.0,25334.0,-0.5568560013773742
7740.0,25339.0,-0.5693837219918366
7750.0,25341.0,-0.5665252974019107
7760.0,25338.0,-0.548463889479345
7770.0,25353.0,-0.5159934927582001
7780.0,25358.0,-0.4704365272487014
7790.0,25355.0,-0.41353424782328796
7800.0,25359.0,-0.34732531712271675
7810.0,25362.0,-0.2740247756216994
7820.0,25366.0,-0.19590921318919322
7830.0,25375.0,-0.11521131950677801
7840.0,25372.0,-0.03402853385551342
7850.0,25373.0,0.04574849506723116
7860.0,25382.0,0.12248452935995224
7870.0,25380.0,0.1948262468642497
7880.0,25388.0,0.26170838278468633
7890.0,25381.0,0.3223401693771974
7900.0,25375.0,0.3761742596178353
7910.0,25386.0,0.42286573650480597
7920.0,25389.0,0.46223307044727996
7930.0,25391.0,0.4942296428592807
7940.0,25394.0,0.5189261531306194
7950.0,25381.0,0.5365000516487365
7960.0,25392.0,0.5472313617711603
7970.0,25402.0,0.5515088658864236
7980.0,25409.0,0.5498478698710306
7990.0,25403.0,0.5429101989671232
8000.0,25393.0,0.5315107418873007
8010.0,25400.0,0.5166017039782625
8020.0,25393.0,0.49923816123250164
8031.0,25401.0,0.48053384319928866
8040.0,25401.0,0.46161279314698345
8050.0,25387.0,0.44355775785488855
8060.0,25394.0,0.42735593885901874
8070.0,25391.0,0.41384733835984827
8080.0,25401.0,0.4036835835353642
8090.0,25390.0,0.3973010274910141
8100.0,25400.0,0.3949064318581262
8110.0,25393.0,0.3964727192511697
8120.0,25397.0,0.40174424291686994
8131.0,25402.0,0.4102518667895205
8140.0,25401.0,0.4213370205109191
8150.0,25400.0,0.43418174223353684
8160.0,25404.0,0.44784103650987744
8170.0,25407.0,0.4612754071810625
8180.0,25405.0,0.47338211056048696
8190.0,25405.0,0.48302286300069586
8200.0,25404.0,0.4890466204636651
8210.0,25400.0,0.4903091394211834
8220.0,25409.0,0.4856935343422434
8231.0,25400.0,0.47413589893484276
8240.0,25402.0,0.4546579141096301
8250.0,25399.0,0.4264072999638985
8260.0,25394.0,0.3887081938895826
8270.0,25404.0,0.34112434705910116
8280.0,25407.0,0.28353532509759305
8290.0,25403.0,0.21621906524612075
8300.0,25416.0,0.1399269547008307
8310.0,25398.0,0.05593501811273532
8320.0,25410.0,-0.03394276463251852
8331.0,25396.0,-0.12738777769483844
8340.0,25401.0,-0.22165984726883128
8350.0,25387.0,-0.3137288715822071
8360.0,25377.0,-0.4004492676772878
8370.0,25358.0,-0.4787637377413687
8380.0,25362.0,-0.5459124385393894
8390.0,25370.0,-0.5996176602772929
8400.0,25368.0,-0.6382208669553304
8410.0,25363.0,-0.6607648534763658
8420.0,25361.0,-0.6670242325765607
8431.0,25375.0,-0.6574867500264929
8441.0,25381.0,-0.6332866019731103
8450.0,25390.0,-0.596098097661194
8460.0,25380.0,-0.5480077785722797
8470.0,25378.0,-0.49138376817165047
8480.0,25390.0,-0.42875105235747657
8490.0,25396.0,-0.3626719270482924
8500.0,25401.0,-0.2956323185854664
8510.0,25398.0,-0.2299423781007023
8520.0,25392.0,-0.16766126992323682
8531.0,25408.0,-0.1105487689830348
8541.0,25394.0,-0.060038872282405016
8550.0,25408.0,-0.017229550747802507
8560.0,25398.0,0.01711532582680677
8570.0,25397.0,0.042555983853971906
8580.0,25408.0,0.05896462475163299
8590.0,25404.0,0.06651732533941465
8600.0,25410.0,0.06569204436538059
8610.0,25413.0,0.05726912743334731
8620.0,25413.0,0.042327614807433786
8631.0,25415.0,0.02222997359582438
8641.0,25412.0,-0.0014114059619592533
8650.0,25407.0,-0.026789787182268137
8660.0,25412.0,-0.05198110536371467
8670.0,25405.0,-0.07503794052495188
8680.0,25402.0,-0.09409434332899023
8690.0,25395.0,-0.10747409176854279
8700.0,25390.0,-0.11379132705944636
8710.0,25408.0,-0.1120292191618023
8720.0,25404.0,-0.10158552291558501
8731.0,25403.0,-0.08228410723255887
8741.0,25408.0,-0.05435961848050602
8751.0,25411.0,-0.018422116630850836
8760.0,25415.0,0.024594122507997855
8770.0,25415.0,0.0734925594741419
8780.0,25407.0,0.12688121800872051
8790.0,25423.0,0.18324174068970894
8800.0,25435.0,0.2410011617332856
8810.0,25434.0,0.2986029634594924
8820.0,25430.0,0.35456614841899253
8831.0,25426.0,0.407520831929518
8841.0,25433.0,0.4562182612650797
8851.0,25428.0,0.4995221149429221
8860.0,25432.0,0.5363899059294374
8870.0,25432.0,0.5658512179704352
8880.0,25426.0,0.5869877862330338
8890.0,25431.0,0.5989203932385143
8900.0,25425.0,0.6008084989928628
8910.0,25438.0,0.5918684165573558
8920.0,25434.0,0.5714130523497156
8931.0,25432.0,0.5389114312760847
8941.0,25431.0,0.4940618177722653
8951.0,25433.0,0.43687047018464914
8961.0,25438.0,0.3677283176793269
8970.0,25444.0,0.2874775756089859
8980.0,25447.0,0.1974590512412133
8990.0,25433.0,0.09952999857637011
9000.0,25423.0,-0.003957201255178471
9010.0,25421.0,-0.11022249727064998
9020.0,25411.0,-0.21617306391378818
9031.0,25402.0,-0.3185599865604285
9041.0,25383.0,-0.4141641673275417
9051.0,25385.0,-0.4999914512283218
9061.0,25385.0,-0.5734518522346478
9070.0,25385.0,-0.6325012269122868
9080.0,25388.0,-0.6757353952994692
9090.0,25376.0,-0.7024374246032262
9100.0,25390.0,-0.7125821211733353
9110.0,25384.0,-0.7068006905627079
9120.0,25395.0,-0.6863095498839868
9131.0,25396.0,-0.6528116284851834
9141.0,25392.0,-0.6083820197752556
9151.0,25401.0,-0.5553493508455377
9161.0,25402.0,-0.4961807790646164
9171.0,25402.0,-0.4333760283549429
9180.0,25403.0,-0.36937527196590303
9190.0,25397.0,-0.30648340772081967
9200.0,25402.0,-0.24680833734250915
9210.0,25404.0,-0.19220685856970485
9220.0,25409.0,-0.1442322167867797
9231.0,25414.0,-0.10408214887818067
9241.0,25415.0,-0.07255188145506127
9251.0,25417.0,-0.04999965630694836
9261.0,25417.0,-0.03633206560638869
9271.0,25414.0,-0.031013773663956704
9280.0,25413.0,-0.03310249504769763
9290.0,25422.0,-0.04130684618744817
9300.0,25404.0,-0.0540636493268406
9310.0,25413.0,-0.06963136285504418
9320.0,25404.0,-0.08619404398592836
9331.0,25412.0,-0.10196726437631003
9341.0,25408.0,-0.11529845892248254
9351.0,25392.0,-0.12475751360773472
9361.0,25400.0,-0.12921261166669118
9371.0,25404.0,-0.1278817023374503
9380.0,25410.0,-0.12035056582963562
9390.0,25415.0,-0.10655834247030845
9400.0,25405.0,-0.08676157260365228
9410.0,25403.0,-0.06148859290662162
9420.0,25407.0,-0.031488221368434384
9431.0,25418.0,0.0023305797565749396
9441.0,25417.0,0.038969299722923074
9451.0,25413.0,0.0774137619738638
9461.0,25417.0,0.11670121750232722
9471.0,25414.0,0.15597558813223236
9481.0,25423.0,0.19453121807556256
9490.0,25425.0,0.23184554377851613
9500.0,25422.0,0.2675976074079009
9510.0,25418.0,0.30166771275444343
9520.0,25428.0,0.3341169285326771
9531.0,25424.0,0.3651496935670087
9541.0,25429.0,0.3950627624944868
9551.0,25428.0,0.4241809956184286
9561.0,25421.0,0.4527803103840152
9571.0,25416.0,0.4810018518548897
9581.0,25426.0,0.5087672707451192
9590.0,25425.0,0.5357078147547796
9600.0,25419.0,0.5611158300786282
9610.0,25415.0,0.5839219730744335
9621.0,25416.0,0.6027025864429323
9631.0,25423.0,0.615725378138355
9641.0,25424.0,0.6210388731367806
9651.0,25425.0,0.6166022386107283
9661.0,25426.0,0.6004445659232033
9671.0,25428.0,0.5708404504155212
9681.0,25436.0,0.5264887913435508
9690.0,25434.0,0.46668050273368666
9700.0,25430.0,0.3914387796313527
9710.0,25425.0,0.3016157800984841
9721.0,25429.0,0.1989332961806994
9731.0,25424.0,0.08595939015444587
9741.0,25414.0,-0.0339845673469382
9751.0,25402.0,-0.1569885481601489
9761.0,25374.0,-0.2787828097526556
9771.0,25372.0,-0.3950087249796302
9781.0,25369.0,-0.5014963564689866
9790.0,25368.0,-0.5945131324865167
9800.0,25365.0,-0.6709606074686021
9810.0,25363.0,-0.7285108970527333
9821.0,25369.0,-0.7656822333976107
9831.0,25377.0,-0.7818571015174502
9841.0,25374.0,-0.7772521585250626
9851.0,25374.0,-0.7528547497578864
9861.0,25367.0,-0.7103400462460262
9871.0,25379.0,-0.6519754598562708
9881.0,25379.0,-0.5805129227047882
9890.0,25377.0,-0.4990702773015031
9900.0,25380.0,-0.4110059420680916
9910.0,25379.0,-0.3197897914899151
9921.0,25384.0,-0.22886954843598573
9931.0,25397.0,-0.14153147278722053
9941.0,25398.0,-0.06075859795768104
9951.0,25403.0,0.010903454798828049
9961.0,25402.0,0.07145959607989985
9971.0,25409.0,0.11954640424283103
9981.0,25405.0,0.15447508756999317
9990.0,25405.0,0.1762332954721623
10000.0,25410.0,0.18544542105540418
10011.0,25393.0,0.1832940665363181
10021.0,25391.0,0.17140925450243608
10031.0,25397.0,0.1517377918599697
10041.0,25393.0,0.12640874211812447
10051.0,25391.0,0.09760683069051854
10061.0,25383.0,0.06745900034585352
10071.0,25395.0,0.03793800960126012
10081.0,25385.0,0.01078768091836629
10090.0,25387.0,-0.012528381840872082
10100.0,25388.0,-0.030856096428401324
10111.0,25382.0,-0.04335994696292068
10121.0,25392.0,-0.04951300596696226
10131.0,25393.0,-0.049070687123284946
10141.0,25384.0,-0.04203420168919403
10151.0,25390.0,-0.028611205656648712
10161.0,25384.0,-0.009177830992445818
10171.0,25396.0,0.015758092780946163
10181.0,25385.0,0.04559286866982116
10190.0,25391.0,0.07965979301179943
10200.0,25391.0,0.1172572875959951
10211.0,25388.0,0.15767275215084392
10221.0,25402.0,0.2002032415873414
10231.0,25396.0,0.24417216739679662
10241.0,25404.0,0.28893805632279945
10251.0,25403.0,0.3338895878903848
10261.0,25391.0,0.37842300097998527
10271.0,25400.0,0.42190352903589345
10281.0,25395.0,0.4636191337420771
10290.0,25400.0,0.5027374675562924
10301.0,25396.0,0.5382741906690544
10311.0,25395.0,0.5690774075150061
10321.0,25401.0,0.5938323226091794
10331.0,25398.0,0.6110897368440574
10341.0,25401.0,0.6193192380246164
10351.0,25400.0,0.616984511033934
10361.0,25403.0,0.602636275800719
10371.0,25395.0,0.575017413988435
10381.0,25401.0,0.5331744789615607
10391.0,25402.0,0.4765699212984395
10401.0,25399.0,0.4051878264670465
10411.0,25401.0,0.3196225751068005
10421.0,25395.0,0.22113824587620592
10431.0,25392.0,0.11168836840458624
10441.0,25402.0,-0.006111476558405287
10451.0,25385.0,-0.1290645456241255
10461.0,25368.0,-0.2535327522502063
10471.0,25353.0,-0.37563287028265246
10481.0,25346.0,-0.4914701736382133
10491.0,25353.0,-0.5973783752718174
10501.0,25329.0,-0.6901371685135678
10511.0,25336.0,-0.7671490198117058
10521.0,25335.0,-0.82656318803629
10531.0,25337.0,-0.8673383376372191
10541.0,25340.0,-0.8892425407993373
10551.0,25338.0,-0.8927982426276396
10561.0,25354.0,-0.8791843165604036
10571.0,25345.0,-0.8501093930070128
10581.0,25352.0,-0.8076724038524528
10591.0,25351.0,-0.7542250134973388
10601.0,25353.0,-0.6922456364252239
10611.0,25354.0,-0.62423006151501
10621.0,25351.0,-0.5526008971918313
10631.0,25359.0,-0.47963548219908386
10641.0,25360.0,-0.407410099053747
10651.0,25348.0,-0.3377584590558712
10661.0,25363.0,-0.27224181463599184
10671.0,25371.0,-0.21212590310275312
10681.0,25366.0,-0.15836225385165667
10691.0,25365.0,-0.11157810390529564
10701.0,25362.0,-0.07207987430406701
10711.0,25374.0,-0.03986830265240592
10721.0,25366.0,-0.014659550051555873
10731.0,25380.0,0.004089823849079216
10741.0,25374.0,0.01715102470540708
10751.0,25366.0,0.02547958322782856
10761.0,25364.0,0.030158907916271543
10772.0,25367.0,0.03233694464618009
10781.0,25373.0,0.03316668721669332
10791.0,25373.0,0.03375701720958645
10801.0,25365.0,0.0351322278642547
10811.0,25364.0,0.038196322130042544
10821.0,25375.0,0.04370288659721684
10831.0,25371.0,0.05223428933048271
10841.0,25365.0,0.06419032687069971
10851.0,25368.0,0.07978346778058402
10862.0,25370.0,0.09904092178528684
10871.0,25375.0,0.12181645995918336
10881.0,25376.0,0.14781167845520823
10891.0,25372.0,0.17660163782405147
10901.0,25375.0,0.2076594379600375
10911.0,25378.0,0.24037779197943032
10921.0,25375.0,0.2740882157844526
10931.0,25377.0,0.3080782528933166
10941.0,25372.0,0.3416072783013362
10951.0,25385.0,0.3739231157900231
10962.0,25381.0,0.40428157667522074
10971.0,25392.0,0.4319670408383984
10981.0,25385.0,0.456307557642829
10991.0,25376.0,0.4766776042124086
11001.0,25382.0,0.49248753129930783
11011.0,25384.0,0.5031665472366065
11021.0,25380.0,0.508147910245439
11031.0,25385.0,0.5068602314351497
11041.0,25365.0,0.4987254695074817
11052.0,25380.0,0.48316665872649583
11062.0,25366.0,0.45963258131618223
11071.0,25384.0,0.42764613349904756
11081.0,25380.0,0.38687623537349936
11091.0,25372.0,0.3372242884706354
11101.0,25386.0,0.27891183653335816
11111.0,25388.0,0.21255676583421607
11121.0,25376.0,0.13922489760572299
11131.0,25375.0,0.06044252022165108
11142.0,25368.0,-0.02183901687716169
11152.0,25363.0,-0.10532502127594202
11162.0,25356.0,-0.18749701483196432
11171.0,25351.0,-0.26575907828379247
11181.0,25344.0,-0.3375981407601154
11191.0,25331.0,-0.4007435712614576
11201.0,25329.0,-0.4533091721417413
11211.0,25340.0,-0.49389919112280756
11221.0,25345.0,-0.5216649464892871
11231.0,25343.0,-0.5363121218452812
11242.0,25348.0,-0.5380715927581788
11252.0,25334.0,-0.5276490435715523
11261.0,25347.0,-0.5061621274644006
11271.0,25352.0,-0.47506725990769916
11281.0,25346.0,-0.436078100564774
11291.0,25346.0,-0.39108186573032006
11301.0,25346.0,-0.3420589313963593
11311.0,25352.0,-0.2910053771188114
11321.0,25353.0,-0.2398556525822752
11332.0,25347.0,-0.1904053112073756
11342.0,25357.0,-0.14423562277364807
11352.0,25361.0,-0.10264098970634569
11361.0,25369.0,-0.06656163677675156
11371.0,25367.0,-0.03652969271264731
11381.0,25363.0,-0.01264019335392991
11391.0,25361.0,0.005445517978543273
11401.0,25364.0,0.018465119028700138
11411.0,25370.0,0.027496057796713956
11422.0,25366.0,0.033876940640173034
11432.0,25356.0,0.039110857987480416
11442.0,25356.0,0.04475362536518738
11451.0,25361.0,0.05229711143670353
11461.0,25362.0,0.06306120665434545
11471.0,25350.0,0.07810345529851888
11481.0,25361.0,0.09815075363081273
11491.0,25363.0,0.12355782701024524
11501.0,25366.0,0.15429610267469618
11512.0,25368.0,0.18997060077997596
11522.0,25361.0,0.22985816148382396
11532.0,25368.0,0.27296226677408597
11542.0,25379.0,0.31808357257303
11551.0,25382.0,0.3639038846053288
11561.0,25381.0,0.4090742960249755
11571.0,25373.0,0.4522944071076707
11581.0,25375.0,0.49237549938624053
11591.0,25386.0,0.5282903854232608
11602.0,25393.0,0.5592150328076538
11612.0,25385.0,0.5845595998636227
11622.0,25388.0,0.6039796819599696
11632.0,25382.0,0.6173615803474247
11642.0,25389.0,0.624783845144864
11651.0,25385.0,0.6264617494530725
11661.0,25384.0,0.6226803046960439
11671.0,25379.0,0.6137200788972487
11681.0,25377.0,0.5997818172960327
11692.0,25373.0,0.580919086167447
11702.0,25374.0,0.5569896476400594
11712.0,25367.0,0.5276350585864285
11722.0,25368.0,0.4922954454541358
11732.0,25376.0,0.45026354499359583
11741.0,25370.0,0.4007773736961979
11751.0,25382.0,0.3431436273595054
11761.0,25373.0,0.27687747750171576
11771.0,25377.0,0.20184183609397277
11781.0,25380.0,0.11836996083437089
11792.0,25384.0,0.027356617769721318
11802.0,25375.0,-0.06969757183480628
11812.0,25367.0,-0.17070332818076073
11822.0,25350.0,-0.2730682370818779
11832.0,25349.0,-0.37384314550584125
11841.0,25341.0,-0.4699098893700273
11851.0,25330.0,-0.558187116536163
11861.0,25327.0,-0.6358330142473646
11871.0,25324.0,-0.7004256942635487
11882.0,25327.0,-0.7501042580641748
11892.0,25333.0,-0.7836599086565634
11902.0,25333.0,-0.8005761625203553
11912.0,25332.0,-0.8010255670517329
11922.0,25333.0,-0.7858331117059997
11931.0,25327.0,-0.7564135248850183
11941.0,25338.0,-0.7146848764544184
11951.0,25339.0,-0.6629589452203816
11961.0,25344.0,-0.6038115991246866
11972.0,25349.0,-0.5399413559564077
11982.0,25358.0,-0.4740272651706853
11992.0,25353.0,-0.4085980355140493
12002.0,25348.0,-0.34592299817738825
12012.0,25360.0,-0.287929767298734
12022.0,25358.0,-0.23614650218014563
12031.0,25363.0,-0.19166569318984775
12041.0,25360.0,-0.1551300752298593
12051.0,25355.0,-0.1267419495399803
12062.0,25358.0,-0.10629291293381174
12072.0,25368.0,-0.09320667770564478
12082.0,25368.0,-0.08658912825549558
12092.0,25353.0,-0.08528604464289333
12102.0,25364.0,-0.08795076504027241
12112.0,25360.0,-0.09311826523118577
12121.0,25367.0,-0.09927837876473972
12131.0,25358.0,-0.10494452424537758
12141.0,25354.0,-0.10871777203701674
12152.0,25366.0,-0.10934367554166327
12162.0,25360.0,-0.10575643142485248
12172.0,25369.0,-0.09710790467111569
12182.0,25365.0,-0.08278472221046376
12192.0,25367.0,-0.06241877202871017
12202.0,25364.0,-0.035894510569256306
12212.0,25367.0,-0.003353017051647693
12221.0,25370.0,0.03480988668307845
12231.0,25375.0,0.0779538048099349
12242.0,25369.0,0.12521179979928293
12252.0,25373.0,0.17551440353082207
12262.0,25385.0,0.22761933866426942
12272.0,25381.0,0.28014708603042937
12282.0,25386.0,0.33161888527806854
12292.0,25384.0,0.38049146613698076
12302.0,25382.0,0.4251857732539496
12311.0,25394.0,0.4641114892240438
12321.0,25386.0,0.4956904616572569
12331.0,25379.0,0.5183806517504177
12342.0,25388.0,0.5307030351291825
12352.0,25375.0,0.5312779868247962
12362.0,25391.0,0.5188790226372219
12372.0,25389.0,0.49250726275870726
12382.0,25386.0,0.4514824868769706
12392.0,25392.0,0.39554064946698864
12402.0,25390.0,0.32492620574809267
12411.0,25386.0,0.24046847517770686
12421.0,25395.0,0.14363161654845413
12432.0,25383.0,0.03652807366630593
12442.0,25382.0,-0.07811361527934486
12452.0,25378.0,-0.19703257378043124
12462.0,25371.0,-0.31657128240835375
12472.0,25346.0,-0.4328577155745062
12482.0,25347.0,-0.5420207364218056
12492.0,25340.0,-0.6404157898910645
12502.0,25335.0,-0.724833958845577
12511.0,25338.0,-0.7926733109332658
12522.0,25334.0,-0.8420606041801014
12532.0,25336.0,-0.8719184179258145
12542.0,25339.0,-0.8819776877330124
12552.0,25343.0,-0.8727394074324869
12562.0,25349.0,-0.8453930764362488
12572.0,25346.0,-0.8017032150681161
12582.0,25360.0,-0.7438768843728089
12592.0,25361.0,-0.6744246968770058
12601.0,25362.0,-0.5960276643858038
12612.0,25364.0,-0.5114213854020244
12622.0,25357.0,-0.42330415256144377
12632.0,25360.0,-0.3342673965804404
12642.0,25366.0,-0.24673998248782417
12652.0,25376.0,-0.16293667440145254
12662.0,25369.0,-0.08480664373166696
12672.0,25374.0,-0.013984121394004671
12682.0,25378.0,0.048256587595077165
12691.0,25386.0,0.10104232437288603
12702.0,25389.0,0.1439375277847155
12712.0,25386.0,0.17696994048481457
12722.0,25392.0,0.20063794025035886
12732.0,25390.0,0.21589496719050955
12742.0,25392.0,0.22410996313043868
12752.0,25394.0,0.2270040184706964
12762.0,25386.0,0.2265640748204287
12772.0,25393.0,0.2249363102294973
12782.0,25384.0,0.22430456993700876
12792.0,25389.0,0.2267613272890066
12802.0,25383.0,0.23417944539208882
12812.0,25378.0,0.24809359601363726
12822.0,25383.0,0.2696015640844943
12832.0,25389.0,0.2992961954842108
12842.0,25388.0,0.33723496306577144
12852.0,25397.0,0.38294674263090883
12862.0,25387.0,0.43547020242780893
12872.0,25395.0,0.4934184428693458
12883.0,25406.0,0.5550673905030538
12892.0,25414.0,0.6184647023213188
12902.0,25420.0,0.6815486627257424
12912.0,25410.0,0.7422595072873301
12922.0,25418.0,0.7986277774025176
12932.0,25417.0,0.8488341506438966
12942.0,25415.0,0.8912431497683027
12952.0,25406.0,0.924415755361647
12962.0,25419.0,0.947108122973223
12973.0,25417.0,0.9582656419236044
12982.0,25411.0,0.9570185702754347
12992.0,25410.0,0.9426806247832229
13002.0,25409.0,0.9147524151753539
13012.0,25403.0,0.8729350636139092
13022.0,25410.0,0.817159458747504
13032.0,25410.0,0.7476328072202765
13042.0,25410.0,0.6648980429441769
13052.0,25401.0,0.5698958544358917
13062.0,25410.0,0.4640177868326278
13073.0,25409.0,0.34914081203567215
13082.0,25410.0,0.2276328502305581
13092.0,25395.0,0.10231558350109213
13102.0,25386.0,-0.023626394897255532
13112.0,25375.0,-0.14678952264190656
13122.0,25364.0,-0.2637341441449045
13132.0,25366.0,-0.37118432895484627
13142.0,25356.0,-0.4662226374688046
13152.0,25350.0,-0.5464627634754581
13163.0,25342.0,-0.6101872342808583
13172.0,25349.0,-0.6564380397367184
13182.0,25354.0,-0.6850498915635975
13192.0,25346.0,-0.6966236873626971
13202.0,25357.0,-0.6924471022158173
13212.0,25361.0,-0.6743734244952014
13222.0,25367.0,-0.6446714138955557
13232.0,25366.0,-0.6058623465500623
13242.0,25369.0,-0.5605619136601667
13253.0,25370.0,-0.5113408445453452
13263.0,25370.0,-0.4606122533929032
13272.0,25365.0,-0.41054900512716885
13282.0,25368.0,-0.36303007608346877
13292.0,25364.0,-0.3196104594556058
13302.0,25365.0,-0.2815065125901821
13312.0,25370.0,-0.2495887213872755
13322.0,25373.0,-0.22437633846793956
13332.0,25370.0,-0.20603280165414115
13343.0,25378.0,-0.19436478204515426
13353.0,25375.0,-0.18882888087938446
13362.0,25382.0,-0.188550065074089
13372.0,25376.0,-0.19235653125792398
13382.0,25371.0,-0.19883488434227725
13392.0,25371.0,-0.20640520719471608
13402.0,25372.0,-0.21340975036460033
13412.0,25372.0,-0.2182066062034902
13422.0,25372.0,-0.21926228076334922
13433.0,25365.0,-0.21524013087268634
13443.0,25368.0,-0.20508124003533373
13452.0,25366.0,-0.18807161391391303
13462.0,25371.0,-0.16388864159905664
13472.0,25363.0,-0.13262207035688228
13482.0,25374.0,-0.09476743366943433
13492.0,25378.0,-0.051191495105323254
13502.0,25379.0,-0.0030725559635656425
13512.0,25383.0,0.04817657342948742
13523.0,25374.0,0.10099357550380635
13533.0,25387.0,0.1537539958827423
13543.0,25391.0,0.2048594178520418
13552.0,25393.0,0.252823458326376
13562.0,25386.0,0.29634783223073546
13572.0,25391.0,0.3343807870899245
13582.0,25393.0,0.366156222773813
13592.0,25394.0,0.39121581712507186
13602.0,25403.0,0.4094145642161146
13613.0,25393.0,0.42090638261086705
13623.0,25392.0,0.42610582850308837
13633.0,25392.0,0.425626343415264
13642.0,25392.0,0.42020160787205013
13652.0,25389.0,0.4105986871659185
13662.0,25379.0,0.39753023653078834
13672.0,25378.0,0.38157383879721885
13682.0,25380.0,0.3631101491953119
13692.0,25380.0,0.3422919280194306
13703.0,25379.0,0.31905032163398794
13713.0,25381.0,0.2931374982316649
13723.0,25380.0,0.2642005659009529
13733.0,25394.0,0.23187925159564465
13742.0,25393.0,0.19591545106605088
13752.0,25387.0,0.15625692423219878
13762.0,25391.0,0.11313599574994068
13772.0,25380.0,0.0671103231753821
13782.0,25389.0,0.019061299040550324
13793.0,25382.0,-0.029849690493667275
13803.0,25359.0,-0.07826519884569658
13813.0,25357.0,-0.12474850150881701
13823.0,25355.0,-0.16791465062845923
13832.0,25361.0,-0.2065504343324677
13842.0,25358.0,-0.23970479899949354
13852.0,25345.0,-0.2667442321493338
13862.0,25365.0,-0.287373580580448
13872.0,25361.0,-0.30162287160422263
13883.0,25369.0,-0.3098049217830432
13893.0,25359.0,-0.3124563046188899
13903.0,25363.0,-0.31027562827948174
13913.0,25360.0,-0.30406658315235857
13923.0,25360.0,-0.29468671694402365
13932.0,25373.0,-0.28300130102975096
13942.0,25364.0,-0.26984444155180676
13952.0,25356.0,-0.2559928672996505
13962.0,25360.0,-0.2421553909438201
13973.0,25361.0,-0.2289732232263914
13983.0,25354.0,-0.21702230174230167
13993.0,25359.0,-0.20681130592422886
14003.0,25367.0,-0.19877208344872124
14013.0,25363.0,-0.19324224677924154
14022.0,25368.0,-0.1904447556225943
14032.0,25368.0,-0.19047242484126
14042.0,25358.0,-0.19328373129995755
14052.0,25356.0,-0.19871162903457698
14063.0,25357.0,-0.20648067730838696
14073.0,25368.0,-0.2162238206010832
14083.0,25363.0,-0.2274941460329362
14093.0,25354.0,-0.23977515181629175
14103.0,25359.0,-0.25249491912166383
14113.0,25355.0,-0.26504360081513484
14122.0,25359.0,-0.27678929908376754
14132.0,25360.0,-0.28708959038988546
14142.0,25353.0,-0.29530005565437306
14152.0,25357.0,-0.3007823000061085
14163.0,25365.0,-0.3029124208222749
14173.0,25363.0,-0.3010912404522154
14183.0,25358.0,-0.29476128612693275
14193.0,25351.0,-0.28343593297513847
14203.0,25348.0,-0.26673883967707906
14212.0,25357.0,-0.24444294628516336
14222.0,25354.0,-0.21649674458731433
14232.0,25363.0,-0.18303205480357485
14242.0,25360.0,-0.14435536019007347
14253.0,25371.0,-0.10092869617234268
14263.0,25368.0,-0.05334708080056679
14273.0,25367.0,-0.002319348791023138
14283.0,25362.0,0.05134345138080581
14293.0,25369.0,0.10673401234646025
14302.0,25377.0,0.16285563706958964
14312.0,25378.0,0.21863414244394144
14322.0,25368.0,0.2729324178656731
14332.0,25377.0,0.3245640599785179
14343.0,25379.0,0.3723079067812917
14353.0,25383.0,0.4149280195482132
14363.0,25384.0,0.45119953149999853
14373.0,25373.0,0.4799367713541839
14383.0,25376.0,0.5000224499320922
14393.0,25382.0,0.5104427535071219
14402.0,25385.0,0.5103346418254641
14412.0,25380.0,0.49904532078291985
14422.0,25377.0,0.4761973454928204
14433.0,25383.0,0.44175325329488807
14443.0,25384.0,0.3960766532939851
14453.0,25380.0,0.3399851751791675
14463.0,25385.0,0.2747866202073969
14473.0,25386.0,0.20228827318872325
14483.0,25370.0,0.1247702851933139
14492.0,25373.0,0.04491711721043135
14502.0,25370.0,-0.03429223751995308
14512.0,25367.0,-0.10972871610945713
14523.0,25355.0,-0.17828517582127948
14533.0,25353.0,-0.2370682317311726
14543.0,25341.0,-0.2835973172695744
14553.0,25334.0,-0.31599239787247585
14563.0,25337.0,-0.33312860413455114
14573.0,25331.0,-0.3347368893504854
14583.0,25343.0,-0.3214356358425124
14592.0,25345.0,-0.2946878544201661
14602.0,25350.0,-0.2566892349581269
14613.0,25354.0,-0.21020063311354487
14623.0,25364.0,-0.15834251270695934
14633.0,25371.0,-0.10437029449006674
14643.0,25376.0,-0.051451766498936666
14653.0,25368.0,-0.0024689642678199144
14663.0,25370.0,0.040137651484399774
14673.0,25365.0,0.07447544743289841
14682.0,25372.0,0.0992590385394869
14692.0,25364.0,0.1138293984141127
14703.0,25368.0,0.11813823453504324
14713.0,25365.0,0.11270231731610238
14723.0,25358.0,0.09853315282663182
14733.0,25368.0,0.07704852155266266
14743.0,25366.0,0.04997222738406252
14753.0,25359.0,0.019225404109240597
14763.0,25360.0,-0.013190108635411698
14773.0,25352.0,-0.045313754865412115
14782.0,25353.0,-0.07534627208613942
14792.0,25342.0,-0.10175768293780342
14803.0,25345.0,-0.12337247538837356
14813.0,25350.0,-0.13942153981329658
14823.0,25348.0,-0.1495543096108359
14833.0,25354.0,-0.15381215477903246
14843.0,25351.0,-0.15257061404721092
14853.0,25356.0,-0.14646026769641587
14863.0,25359.0,-0.13627581840844874
14872.0,25361.0,-0.1228830669796818
14882.0,25357.0,-0.1071340663642416
14893.0,25349.0,-0.08979891881672987
14903.0,25356.0,-0.07151648614219334
14913.0,25358.0,-0.05275993832378612
14923.0,25361.0,-0.03381316694878831
14933.0,25360.0,-0.014759676936955648
14943.0,25357.0,0.004510989565962413
14953.0,25362.0,0.02427644051139953
14963.0,25357.0,0.044935515808723826
14972.0,25358.0,0.06694684600001873
14983.0,25350.0,0.0907568763228127
14993.0,25346.0,0.11672546822872987
15003.0,25361.0,0.1450609702367037
15013.0,25363.0,0.17577556329797558
15023.0,25366.0,0.20866274422992595
15033.0,25358.0,0.24328923427765337
15043.0,25364.0,0.2789931895929079
15053.0,25361.0,0.31488751817061605
15062.0,25372.0,0.34987158346454583
15073.0,25368.0,0.3826525034530325
15083.0,25356.0,0.4117733988711931
15093.0,25359.0,0.435647523981431
15103.0,25364.0,0.45260417567128974
15113.0,25363.0,0.46095511596100786
15123.0,25364.0,0.4590841544459498
15133.0,25357.0,0.4455553588472019
15143.0,25369.0,0.4192338710446862
15153.0,25367.0,0.37941351892902847
15163.0,25377.0,0.32594137732308476
15173.0,25372.0,0.2593226591357199
15183.0,25359.0,0.180786496138538
15193.0,25363.0,0.09229863927732047
15203.0,25359.0,-0.003482540015288211
15213.0,25357.0,-0.10330405500426648
15223.0,25344.0,-0.20346775749868756
15233.0,25332.0,-0.30002737706960925
15243.0,25323.0,-0.3890212410322469
15253.0,25322.0,-0.4667189806344439
15263.0,25321.0,-0.5298572971113547
15273.0,25304.0,-0.575844766775894
15283.0,25307.0,-0.6029213500678298
15293.0,25309.0,-0.6102591957727324
15303.0,25321.0,-0.597993279793669
15313.0,25322.0,-0.5671804042423937
15323.0,25319.0,-0.5196979112410836
15333.0,25330.0,-0.45809883715351446
15344.0,25331.0,-0.38543776033707744
15353.0,25340.0,-0.3050794176721587
15363.0,25334.0,-0.2205033123295676
15373.0,25335.0,-0.13511690392746992
15383.0,25345.0,-0.05208479006142926
15393.0,25352.0,0.02582308374926653
15403.0,25362.0,0.09635852842545331
15413.0,25352.0,0.15788521224931518
15423.0,25349.0,0.20941864240970962
15434.0,25354.0,0.25061209432239084
15444.0,25347.0,0.28169600170869324
15453.0,25353.0,0.3033828638975508
15463.0,25337.0,0.3167487002762913
15473.0,25351.0,0.32310199005157253
15483.0,25341.0,0.32385218317403053
15493.0,25341.0,0.32038852901511905
15503.0,25341.0,0.3139770199977932
15513.0,25336.0,0.30568203566877694
15523.0,25343.0,0.29631872244358337
15534.0,25342.0,0.28643941216011654
15543.0,25346.0,0.27635241111425546
15553.0,25345.0,0.26616636566541496
15563.0,25334.0,0.2558511996887535
15573.0,25346.0,0.24530900819201526
15583.0,25351.0,0.23445164797149953
15593.0,25353.0,0.2232793088721171
15603.0,25343.0,0.21194729619261268
15613.0,25343.0,0.2008071646818266
15624.0,25341.0,0.19041677417903355
15634.0,25346.0,0.181522502227368
15643.0,25349.0,0.17501776548786574
15653.0,25337.0,0.1718777742736079
15663.0,25331.0,0.17306953863904126
15673.0,25333.0,0.1794429610118973
15683.0,25328.0,0.19161747374190347
15693.0,25333.0,0.2098804460769246
15703.0,25331.0,0.23410882193789473
15714.0,25334.0,0.2637199263162754
15724.0,25329.0,0.2976539028457511
15733.0,25337.0,0.33438900766978596
15743.0,25336.0,0.37199052904833135
15753.0,25329.0,0.40819251448751476
15763.0,25343.0,0.4405099764679082
15773.0,25344.0,0.4663784205675468
15783.0,25358.0,0.4833132842397887
15793.0,25351.0,0.48907360060198857
15804.0,25341.0,0.4818097570036875
15814.0,25346.0,0.460181045651772
15824.0,25342.0,0.423440105555504
15833.0,25344.0,0.3714873558941019
15843.0,25337.0,0.3048964087461018
15853.0,25328.0,0.22490889339786216
15863.0,25337.0,0.1333991229314225
15873.0,25330.0,0.03281154096870687
15883.0,25329.0,-0.07392819077818288
15894.0,25313.0,-0.1835309202152797
15904.0,25317.0,-0.29249058399382916
15914.0,25301.0,-0.39725276723366165
15923.0,25302.0,-0.49439356434136833
15933.0,25292.0,-0.5807958836392302
15943.0,25286.0,-0.6538103222191279
15953.0,25285.0,-0.7113878292009229
15963.0,25288.0,-0.7521725448090731
15973.0,25290.0,-0.7755476043230285
15984.0,25289.0,-0.7816342648166263
15994.0,25291.0,-0.7712509732735541
16004.0,25290.0,-0.7458405135125415
16014.0,25294.0,-0.7073718570827926
16023.0,25301.0,-0.6582223614880015
16033.0,25300.0,-0.6010472648882544
16043.0,25301.0,-0.5386455403829099
16053.0,25302.0,-0.4738305609540957
16063.0,25315.0,-0.40931070137308795
16074.0,25307.0,-0.3475836884381758
16084.0,25300.0,-0.2908495395521573
16094.0,25312.0,-0.2409440942518558
16104.0,25311.0,-0.19928900456972928
16113.0,25317.0,-0.16685363562859312
16123.0,25321.0,-0.14413062979325234
16133.0,25308.0,-0.13113142352785717
16143.0,25313.0,-0.12740585777780852
16153.0,25320.0,-0.1320837833048132
16163.0,25317.0,-0.1439336617105362
16174.0,25315.0,-0.16143692633364728
16184.0,25299.0,-0.1828794836546958
16194.0,25304.0,-0.2064559659816833
16204.0,25308.0,-0.23037385613864764
16213.0,25311.0,-0.2529443617717186
16223.0,25300.0,-0.27265566684382736
16233.0,25298.0,-0.28823060796417416
16243.0,25304.0,-0.2986679432130548
16253.0,25311.0,-0.3032621777509152
16264.0,25307.0,-0.30160087006852276
16274.0,25305.0,-0.2935460947115715
16284.0,25312.0,-0.2792082969520658
16294.0,25303.0,-0.25891653061254355
16303.0,25312.0,-0.2331858567185248
16313.0,25307.0,-0.2026819311103405
16323.0,25308.0,-0.16818253696585067
16333.0,25316.0,-0.13053568522367637
16343.0,25310.0,-0.0906144476641754
16354.0,25325.0,-0.04927040442899361
16364.0,25322.0,-0.0072901774758208525
16374.0,25318.0,0.034638388431195766
16384.0,25321.0,0.07594490450300201
16394.0,25331.0,0.11617928075305485
16403.0,25331.0,0.15500059501382474
16413.0,25325.0,0.19215077315460727
16423.0,25323.0,0.22741057420074146
16433.0,25322.0,0.26054153211517045
16444.0,25329.0,0.2912248044921163
16454.0,25329.0,0.3190081808837494
16464.0,25319.0,0.3432672380291132
16474.0,25324.0,0.363183838447497
16484.0,25318.0,0.3777479803096011
16493.0,25328.0,0.3857914919178041
16503.0,25333.0,0.38605834984756243
16513.0,25322.0,0.37730814814598324
16523.0,25334.0,0.35844307307830686
16534.0,25333.0,0.32864805750292325
16544.0,25344.0,0.2875335933011192
16554.0,25345.0,0.2352659138020449
16564.0,25338.0,0.17266393582129094
16574.0,25333.0,0.10124365602736086
16583.0,25334.0,0.023199720920815188
16593.0,25333.0,-0.05867609466488781
16603.0,25314.0,-0.14113510218084416
16613.0,25313.0,-0.22066332110652326
16624.0,25309.0,-0.29371041681130444
16634.0,25293.0,-0.3569351829881665
16644.0,25285.0,-0.4074445869947136
16654.0,25276.0,-0.443001602675881
16664.0,25288.0,-0.46217545956891826
16674.0,25294.0,-0.46441385017988285
16683.0,25309.0,-0.45003153499544707
16693.0,25308.0,-0.4201266067813512
16703.0,25314.0,-0.37644680354010357
16714.0,25314.0,-0.32122987804792025
16724.0,25322.0,-0.25703652200336236
16734.0,25329.0,-0.18658874821767765
16744.0,25321.0,-0.11262480241672736
16754.0,25327.0,-0.03778009231417701
16764.0,25323.0,0.03550196215203223
16773.0,25326.0,0.10503231808744182
16783.0,25331.0,0.16891856062739558
16793.0,25323.0,0.2255931438181031
16804.0,25332.0,0.2738324804985987
16814.0,25336.0,0.3127712846185273
16824.0,25343.0,0.3419143846137215
16834.0,25341.0,0.36114263935713764
16844.0,25339.0,0.3707053612798012
16854.0,25340.0,0.3711936736281538
16864.0,25336.0,0.3634950839080814
16873.0,25343.0,0.34873362960542525
16883.0,25334.0,0.3282001990566403
16894.0,25327.0,0.3032767307637048
16904.0,25330.0,0.27535997498256387
16914.0,25340.0,0.24579380384677982
16924.0,25334.0,0.21581646852957057
16934.0,25329.0,0.18652102517183797
16944.0,25331.0,0.15882369990110376
16954.0,25324.0,0.13343953867962596
16963.0,25331.0,0.11086933684253883
16973.0,25326.0,0.09140148980693207
16984.0,25330.0,0.07512922306610172
16994.0,25328.0,0.06198078321666818
17004.0,25335.0,0.05175858587360673
17014.0,25330.0,0.04418208797694217
17024.0,25329.0,0.03892826790332269
17034.0,25320.0,0.0356655468680461
17044.0,25330.0,0.03408227656320881
17054.0,25328.0,0.033914655410765854
17063.0,25334.0,0.034976438155744215
17074.0,25333.0,0.0371866539799146
17084.0,25332.0,0.0405880350162251
17094.0,25336.0,0.045349966536701175
17104.0,25339.0,0.051752539099746385
17114.0,25335.0,0.060149492143727855
17124.0,25321.0,0.07090890122133321
17134.0,25331.0,0.08433591314293612
17144.0,25326.0,0.10058963289708406
17153.0,25330.0,0.11960806819016401
17163.0,25329.0,0.1410498727912355
17174.0,25321.0,0.1642570647936097
17184.0,25332.0,0.18824282700933162
17194.0,25331.0,0.21170939444102196
17204.0,25332.0,0.2330982469696409
17214.0,25329.0,0.25066982120044884
17224.0,25334.0,0.2626081637487658
17234.0,25335.0,0.2671469837922513
17244.0,25341.0,0.26271231676093504
17253.0,25344.0,0.2480724935772665
17264.0,25346.0,0.22248140587007714
17274.0,25347.0,0.1857986782110976
17284.0,25340.0,0.13857138460623483
17294.0,25342.0,0.08206644489219045
17304.0,25342.0,0.018248830470665976
17314.0,25338.0,-0.050295412458265146
17324.0,25333.0,-0.12049117201894868
17334.0,25315.0,-0.18895832340933108
17343.0,25314.0,-0.25223679192979936
17354.0,25310.0,-0.3070317870912965
17364.0,25296.0,-0.35045388992910775
17374.0,25299.0,-0.38023045223210267
17384.0,25297.0,-0.39486785394933244
17394.0,25305.0,-0.393748484197535
17404.0,25299.0,-0.3771547859075386
17414.0,25306.0,-0.3462218165981001
17424.0,25316.0,-0.30282488078199804
17434.0,25328.0,-0.2494129102919599
17444.0,25338.0,-0.18880619067007332
17454.0,25334.0,-0.12398557541705568
17464.0,25324.0,-0.05790076809234712
17474.0,25331.0,0.006686157389709195
17484.0,25336.0,0.06732111334753223
17494.0,25336.0,0.1219477380964439
17504.0,25335.0,0.16896824991863096
17514.0,25337.0,0.20727371287683935
17524.0,25333.0,0.23624416616652594
17534.0,25334.0,0.2557228286242448
17544.0,25339.0,0.26597050665014044
17554.0,25328.0,0.2676060629601926
17564.0,25338.0,0.2615375833527737
17574.0,25337.0,0.2488882145014951
17584.0,25329.0,0.23091949645079793
17594.0,25329.0,0.20895369869640404
17604.0,25325.0,0.18429862161860947
17614.0,25326.0,0.15818198160234603
17625.0,25324.0,0.13170271691432323
17634.0,25330.0,0.1058031269920836
17644.0,25324.0,0.08126138543801915
17654.0,25327.0,0.05870049441956067
17664.0,25332.0,0.03860837420811435
17674.0,25329.0,0.021363238296394558
17684.0,25331.0,0.007256972001389427
17694.0,25327.0,-0.003491041025148417
17704.0,25321.0,-0.010734032591251217
17715.0,25314.0,-0.014410529981317626
17724.0,25320.0,-0.01456194868824578
17734.0,25326.0,-0.011344703842109775
17744.0,25311.0,-0.005030585499377871
17754.0,25321.0,0.0040048984878103015
17764.0,25322.0,0.01530577558172157
17774.0,25328.0,0.028370667366071824
17784.0,25331.0,0.042695468165302126
17794.0,25316.0,0.05781434557025907
17805.0,25326.0,0.07333160369660024
17815.0,25333.0,0.08894384136536251
17824.0,25333.0,0.1044538926961132
17834.0,25320.0,0.11977294405280235
17844.0,25322.0,0.13490602004864094
17854.0,25321.0,0.14992419265586535
17864.0,25331.0,0.1649338987552203
17874.0,25332.0,0.18005046400006625
17884.0,25321.0,0.1953743692308581
17895.0,25333.0,0.21096549566087233
17905.0,25325.0,0.2268144194651647
17914.0,25333.0,0.24281331630518033
17924.0,25328.0,0.25872820450628037
17934.0,25322.0,0.274173133173551
17944.0,25331.0,0.2885888047893966
17954.0,25320.0,0.3012309093384572
17964.0,25327.0,0.3111738280767407
17974.0,25326.0,0.3173336221488541
17985.0,25322.0,0.3185121249372987
17995.0,25325.0,0.31346198952350396
18005.0,25331.0,0.3009710415183606
18014.0,25334.0,0.2799616202026203
18024.0,25329.0,0.249595326550512
18034.0,25326.0,0.20937024992701167
18044.0,25333.0,0.15920048023163696
18054.0,25330.0,0.0994719680817112
18064.0,25330.0,0.031068656658654145
18075.0,25311.0,-0.044638495014105065
18085.0,25322.0,-0.1258426640949717
18095.0,25307.0,-0.21038756085304985
18104.0,25309.0,-0.2958801432379779
18114.0,25298.0,-0.37982135003185014
18124.0,25286.0,-0.4597460012528434
18134.0,25291.0,-0.5333593623394008
18144.0,25291.0,-0.598655546556159
18154.0,25290.0,-0.6540071673698579
18165.0,25283.0,-0.698224331029545
18175.0,25284.0,-0.730585643825476
18185.0,25290.0,-0.7508423883690943
18194.0,25292.0,-0.7591966511758675
18204.0,25288.0,-0.7562586270166797
18214.0,25284.0,-0.7429917266447931
18224.0,25293.0,-0.7206512628773329
18234.0,25287.0,-0.6907176617339374
18244.0,25301.0,-0.6548248373317912
18255.0,25287.0,-0.614687513952086
18265.0,25289.0,-0.5720321300128756
18275.0,25300.0,-0.5285322149711482
18285.0,25292.0,-0.48574557465988133
18294.0,25307.0,-0.445052577992836
18304.0,25301.0,-0.4075996064870249
18314.0,25296.0,-0.37425367911314494
18324.0,25302.0,-0.34557165818616864
18334.0,25312.0,-0.3217828770729511
18345.0,25304.0,-0.30278381795630027
18355.0,25302.0,-0.28814780792107164
18365.0,25313.0,-0.2771531652210948
18375.0,25305.0,-0.2688291893095752
18384.0,25310.0,-0.2620182424565981
18394.0,25304.0,-0.2554532755375059
18404.0,25297.0,-0.2478480221107969
18414.0,25302.0,-0.23799206983297716
18424.0,25300.0,-0.22483928122146485
18435.0,25305.0,-0.20757904636813196
18445.0,25304.0,-0.1856850629384188
18455.0,25302.0,-0.15894107750422232
18465.0,25311.0,-0.1274444113988961
18475.0,25310.0,-0.09158820917571156
18484.0,25314.0,-0.052025208490538405
18494.0,25314.0,-0.009618376191099764
18504.0,25313.0,0.034616156034943654
18514.0,25318.0,0.07957071261466495
18524.0,25322.0,0.12411089776670456
18535.0,25325.0,0.1671413168692583
18545.0,25324.0,0.20766711415333364
18555.0,25322.0,0.24484544318388557
18565.0,25326.0,0.2780240167783905
18574.0,25330.0,0.3067675537967156
18584.0,25333.0,0.3308729215519998
18594.0,25323.0,0.35037088492194907
18604.0,25333.0,0.3655120366985408
18614.0,25326.0,0.376738143348783
18625.0,25329.0,0.38464301227608116
18635.0,25332.0,0.38992669274128405
18645.0,25330.0,0.39334540389002864
18655.0,25324.0,0.3956585217251202
18665.0,25331.0,0.39757461804336874
18674.0,25333.0,0.3997004406432261
18684.0,25322.0,0.40249618782774776
18694.0,25332.0,0.40623840887340323
18704.0,25326.0,0.41099252648572115
18715.0,25331.0,0.41659818292055506
18725.0,25331.0,0.4226689279393759
18735.0,25330.0,0.42860524028377067
18745.0,25339.0,0.4336184946403398
18755.0,25321.0,0.4367628187617658
18764.0,25331.0,0.43697290075629835
18774.0,25328.0,0.43310946421014423
18784.0,25324.0,0.4240164643294415
18794.0,25328.0,0.40859229423116367
18805.0,25334.0,0.3858742356198923
18815.0,25338.0,0.3551315901087036
18825.0,25327.0,0.3159572095318195
18835.0,25333.0,0.26834452206771486
18845.0,25328.0,0.21274126024943332
18854.0,25334.0,0.15007611719758726
18864.0,25330.0,0.0817547809008025
18874.0,25318.0,0.009620163694634557
18884.0,25322.0,-0.06412592912790284
18895.0,25310.0,-0.13703581102355783
18905.0,25312.0,-0.20655427417701128
18915.0,25298.0,-0.27017116718501794
18925.0,25296.0,-0.3255758371227095
18935.0,25298.0,-0.37079893571507155
18945.0,25294.0,-0.4043272832896443
18954.0,25293.0,-0.42518204008160054
18964.0,25302.0,-0.43295612771264763
18974.0,25298.0,-0.4278112067904083
18985.0,25307.0,-0.4104388752551034
18995.0,25309.0,-0.3819947617519123
19005.0,25308.0,-0.34401612148236926
19015.0,25307.0,-0.2983329194319607
19025.0,25309.0,-0.2469786925226592
19035.0,25312.0,-0.1921025150626071
19044.0,25314.0,-0.1358812715272807
19054.0,25315.0,-0.08043275070986336
19064.0,25315.0,-0.02773151113023495
19075.0,25321.0,0.020470848844995553
19085.0,25327.0,0.06271963135297356
19095.0,25324.0,0.09792171377708239
19105.0,25333.0,0.12539461672755195
19115.0,25327.0,0.14489322515676592
19125.0,25326.0,0.15660974350523435
19135.0,25334.0,0.16114606335860532
19144.0,25335.0,0.1594602627784081
19154.0,25314.0,0.15278862166754648
19165.0,25316.0,0.14254638090295996
19175.0,25317.0,0.13021911471199987
19185.0,25320.0,0.11726311296958473
19195.0,25328.0,0.10502772558581983
19205.0,25320.0,0.09470071280055686
19215.0,25320.0,0.08727064124137777
19225.0,25322.0,0.08350177117326564
19234.0,25328.0,0.08392120582330356
19244.0,25327.0,0.08881801929565922
19255.0,25317.0,0.09825045231272841
19265.0,25323.0,0.11205754705607167
19275.0,25328.0,0.1298766699932926
19285.0,25330.0,0.1511700298593863
19295.0,25328.0,0.17525836372571604
19305.0,25324.0,0.20135607938914488
19315.0,25329.0,0.22860490498500702
19325.0,25332.0,0.2561078520970495
19334.0,25335.0,0.2829653521882787
19345.0,25328.0,0.30831160478456526
19355.0,25332.0,0.33134778975613305
19365.0,25331.0,0.35137195534902094
19375.0,25341.0,0.367807981633472
19385.0,25345.0,0.38023327469096746
19395.0,25339.0,0.38839872198510517
19405.0,25337.0,0.3922317429349673
19415.0,25337.0,0.39181805414931
19424.0,25341.0,0.3873652875910125
19434.0,25336.0,0.37915419024328584
19445.0,25320.0,0.3674818219040403
19455.0,25335.0,0.3526031982001754
19465.0,25331.0,0.33468223476334424
19475.0,25326.0,0.3137611099600409
19485.0,25330.0,0.2897503233803192
19495.0,25329.0,0.2624384964169623
19505.0,25326.0,0.23152108912834776
19515.0,25331.0,0.19664596245318816
19524.0,25332.0,0.1574715456227626
19535.0,25330.0,0.11373100430703761
19545.0,25320.0,0.06529403828530095
19555.0,25321.0,0.012220287826957207
19565.0,25325.0,-0.04519604836059582
19575.0,25330.0,-0.10638928598980624
19585.0,25327.0,-0.17049785356958924
19595.0,25322.0,-0.2363637942110772
19605.0,25314.0,-0.30256650197093354
19614.0,25308.0,-0.36749243290993117
19625.0,25305.0,-0.4294328297069023
19635.0,25282.0,-0.48669531435003616
19645.0,25309.0,-0.5377121773243463
19655.0,25296.0,-0.5811294203938014
19665.0,25302.0,-0.6158694352855083
19675.0,25295.0,-0.6411708922671128
19685.0,25287.0,-0.6566112860989445
19695.0,25300.0,-0.6621116710502389
19705.0,25302.0,-0.6579196843348344
19715.0,25304.0,-0.6445717041926574
19725.0,25304.0,-0.6228430034262114
19735.0,25302.0,-0.5936969764246957
19745.0,25299.0,-0.5582395714298178
19755.0,25308.0,-0.5176787388948738
19765.0,25309.0,-0.47328611001362275
19775.0,25305.0,-0.42636030821206283
19785.0,25309.0,-0.37819385277947937
19795.0,25311.0,-0.33004423902514535
19805.0,25310.0,-0.2831072808009361
19815.0,25314.0,-0.23849087183752687
19825.0,25315.0,-0.19718846548346555
19835.0,25309.0,-0.16005191483710432
19845.0,25318.0,-0.12776269284120617
19855.0,25324.0,-0.10079996562104405
19865.0,25328.0,-0.07940688264502933
19875.0,25323.0,-0.06356257841674841
19885.0,25328.0,-0.052969984335802286
19896.0,25325.0,-0.04706563978565928
19905.0,25325.0,-0.045052432864310335
19915.0,25317.0,-0.045953093940450766
19925.0,25312.0,-0.04867889739798802
19935.0,25324.0,-0.05210349175360955
19945.0,25322.0,-0.055130999334283046
19955.0,25323.0,-0.05675377967927225
19965.0,25313.0,-0.05610215392771467
19975.0,25315.0,-0.05248753967498858
19986.0,25319.0,-0.045434180557322144
19995.0,25322.0,-0.034692443717242755
20005.0,25322.0,-0.02023170086895921
20015.0,25320.0,-0.0022169081274030166
20025.0,25323.0,0.019025900946846776
20035.0,25326.0,0.04305237674001693
20045.0,25327.0,0.06934887828590018
20055.0,25336.0,0.0973837062394196
20065.0,25331.0,0.12665373804429597
20076.0,25342.0,0.15671824677482246
20086.0,25338.0,0.18721214392185417
20095.0,25335.0,0.21783288283197152
20105.0,25326.0,0.2482997001799259
20115.0,25321.0,0.2782922540853922
20125.0,25324.0,0.3073850738719224
20135.0,25332.0,0.3349975018272714
20145.0,25335.0,0.36037224854881306
20155.0,25329.0,0.3825840932695311
20166.0,25330.0,0.400573439747366
20176.0,25340.0,0.4132008241498979
20185.0,25342.0,0.4193203362015062
20195.0,25339.0,0.417865770802262
20205.0,25338.0,0.40793855202631807
20215.0,25341.0,0.3888880188817554
20225.0,25338.0,0.3603792586747674
20235.0,25343.0,0.32244513004566006
20245.0,25337.0,0.27551777328207866
20255.0,25328.0,0.22043468092222068
20266.0,25332.0,0.15841773291622685
20276.0,25327.0,0.09102862678478013
20285.0,25332.0,0.020105568329355485
20295.0,25323.0,-0.05231719216295459
20305.0,25309.0,-0.12410756066215112
20315.0,25310.0,-0.19314786927481872
20325.0,25300.0,-0.2574493681806985
20335.0,25310.0,-0.31525320228708903
20345.0,25305.0,-0.3651066208299154
20356.0,25299.0,-0.40591156673806655
20366.0,25299.0,-0.43694759555764423
20375.0,25303.0,-0.45786997197528045
20385.0,25309.0,-0.4686827991759547
20395.0,25304.0,-0.46969137217775736
20405.0,25312.0,-0.4614434684419261
20415.0,25307.0,-0.44467016613552324
20425.0,25312.0,-0.4202340806933131
20435.0,25313.0,-0.3890901790511367
20446.0,25301.0,-0.35226203341556
20456.0,25305.0,-0.3108324838546967
20466.0,25303.0,-0.2659416254852202
20475.0,25310.0,-0.21878128380735717
20485.0,25311.0,-0.17057800418464744
20495.0,25312.0,-0.12256309754788013
20505.0,25315.0,-0.07593258538013488
20515.0,25319.0,-0.03180062428074869
20525.0,25322.0,0.0088499786295631
20536.0,25323.0,0.04521527015869789
20546.0,25322.0,0.07670981432903155
20556.0,25328.0,0.1029938152392474
20565.0,25327.0,0.1239849173681943
20575.0,25325.0,0.13985251725141765
20585.0,25313.0,0.15099360415319873
20595.0,25327.0,0.15799381340212884
20605.0,25319.0,0.1615820462359241
20615.0,25327.0,0.1625855499463526
20626.0,25326.0,0.16188648169256237
20636.0,25312.0,0.16037758910393063
20646.0,25320.0,0.15891691988989717
20656.0,25315.0,0.15828699630607324
20665.0,25324.0,0.15916617217721118
20675.0,25329.0,0.16211509687841308
20685.0,25326.0,0.16757317490878162
20695.0,25317.0,0.17585549285010782
20705.0,25318.0,0.187144304750532
20716.0,25322.0,0.20147794415343115
20726.0,25326.0,0.21874434225339645
20736.0,25318.0,0.23868229142275385
20746.0,25313.0,0.260889136973598
20756.0,25334.0,0.2848354035105235
20765.0,25326.0,0.3098887688310946
20775.0,25326.0,0.3353447042792184
20785.0,25327.0,0.36045605802797703
20795.0,25326.0,0.38445685145844677
20806.0,25330.0,0.40658090927060425
20816.0,25333.0,0.4260765669838869
20826.0,25320.0,0.44221656790739566
20836.0,25330.0,0.454302453498468
20846.0,25333.0,0.4616657278229094
20855.0,25324.0,0.4636685920101145
20865.0,25321.0,0.45970438233661104
20875.0,25315.0,0.449199154884478
20885.0,25319.0,0.43162178064325496
20896.0,25324.0,0.4065118040995967
20906.0,25325.0,0.3735279923396195
20916.0,25319.0,0.3325111740685229
20926.0,25319.0,0.28355055002277085
20936.0,25319.0,0.22704512127469414
20946.0,25324.0,0.1637552252929524
20955.0,25327.0,0.0948376383024206
20965.0,25313.0,0.02185322074667483
20975.0,25307.0,-0.053263883320047875
20986.0,25311.0,-0.12827833739311806
20996.0,25301.0,-0.20076053994703624
21006.0,25295.0,-0.26821928266474027
21016.0,25282.0,-0.32825104953044143
21026.0,25280.0,-0.37869271741663163
21036.0,25273.0,-0.4177595287326951
21045.0,25282.0,-0.44415183282965626
21055.0,25277.0,-0.45712193083032315
21065.0,25277.0,-0.45649997340610277
21075.0,25291.0,-0.4426817532189525
21086.0,25291.0,-0.41658386468436326
21096.0,25289.0,-0.37957505673406805
21106.0,25294.0,-0.3333938129429427
21116.0,25288.0,-0.2800591629772066
21126.0,25297.0,-0.2217774986668047
21136.0,25295.0,-0.16084619956224805
21145.0,25307.0,-0.09955584938144829
21155.0,25301.0,-0.04009583476121141
21165.0,25296.0,0.01553003893001341
21176.0,25304.0,0.06557436599701819
21186.0,25311.0,0.10860522334971968
21196.0,25317.0,0.14355480156608666
21206.0,25304.0,0.16975199116240727
21216.0,25308.0,0.18693071544006434
21226.0,25303.0,0.19521268661181243
21235.0,25314.0,0.19507120355660354
21245.0,25308.0,0.18728265053487625
21255.0,25298.0,0.172867385852514
21266.0,25297.0,0.15302121192696827
21276.0,25298.0,0.12904465554608832
21286.0,25310.0,0.1022807756058483
21296.0,25300.0,0.07406617692681883
21306.0,25288.0,0.045691184326607646
21316.0,25301.0,0.018365234377355752
21326.0,25296.0,-0.006809725155127913
21335.0,25303.0,-0.028854274722798327
21345.0,25300.0,-0.046918331134387814
21356.0,25296.0,-0.06028775167348182
21366.0,25292.0,-0.06839656269101231
21376.0,25297.0,-0.07084477742740028
21386.0,25295.0,-0.06741768284294965
21396.0,25285.0,-0.058102741210106786
21406.0,25294.0,-0.0431010128900682
21416.0,25293.0,-0.022828457396875713
21425.0,25288.0,0.002097386308942369
21435.0,25301.0,0.03088663060779785
21446.0,25296.0,0.06262066141747788
21456.0,25306.0,0.09630613229652628
21466.0,25307.0,0.13093209241397924
21476.0,25313.0,0.1655208289064587
21486.0,25308.0,0.19916269519760435
21496.0,25302.0,0.2310277545798982
21506.0,25300.0,0.2603541570446053
21516.0,25304.0,0.28642197167567485
21525.0,25307.0,0.30852487044932925
21536.0,25297.0,0.325948403721077
21546.0,25293.0,0.33795944882784323
21556.0,25304.0,0.3438128928352432
21566.0,25309.0,0.34278320925953504
21576.0,25311.0,0.33422175327529113
21586.0,25306.0,0.31762967288141536
21596.0,25315.0,0.2927323137157162
21606.0,25304.0,0.25954448352213044
21615.0,25320.0,0.2184195362673268
21626.0,25311.0,0.1700754969333373
21636.0,25301.0,0.11559054548782063
21646.0,25305.0,0.05636285752864462
21656.0,25298.0,-0.005962887206103852
21666.0,25289.0,-0.06959415642445985
21676.0,25270.0,-0.13270414787135587
21686.0,25277.0,-0.19354735619200247
21696.0,25262.0,-0.250561875018684
21706.0,25267.0,-0.30244657303234357
21716.0,25267.0,-0.34820888182541593
21726.0,25267.0,-0.3871850265708722
21736.0,25266.0,-0.41903705974047867
21746.0,25272.0,-0.4437315403401869
21756.0,25285.0,-0.4615047061655631
21766.0,25281.0,-0.47281917082808067
21776.0,25279.0,-0.4783171513481554
21786.0,25282.0,-0.4787739056309793
21796.0,25279.0,-0.47505280427653507
21806.0,25285.0,-0.46806222845448003
21816.0,25284.0,-0.4587149914334623
21826.0,25278.0,-0.4478918514935762
21836.0,25278.0,-0.43641006415988615
21846.0,25280.0,-0.4249956492706632
21856.0,25296.0,-0.4142568835851439
21866.0,25292.0,-0.4046596988812515
21876.0,25283.0,-0.3965110990065543
21886.0,25286.0,-0.3899566291112727
21897.0,25280.0,-0.3849901225299078
21906.0,25295.0,-0.38146750339485685
21916.0,25285.0,-0.37911855527668864
21926.0,25294.0,-0.3775568467287746
21936.0,25286.0,-0.3762908213914495
21946.0,25294.0,-0.37473750879467876
21956.0,25294.0,-0.37223858752587846
21966.0,25294.0,-0.36807922477326077
21976.0,25295.0,-0.3615116982655598
21987.0,25298.0,-0.3517857275309743
21996.0,25296.0,-0.33818606594032646
22006.0,25301.0,-0.3200770555118949
22016.0,25281.0,-0.296952671489173
22026.0,25301.0,-0.26848680810915365
22036.0,25300.0,-0.23457450340185312
22046.0,25302.0,-0.19535686671319355
22056.0,25302.0,-0.15122960807534383
22066.0,25303.0,-0.10283817173784103
22077.0,25302.0,-0.05105943862320067
22087.0,25316.0,0.0030328884860898343
22096.0,25318.0,0.0582203163927204
22106.0,25321.0,0.11320424507240036
22116.0,25319.0,0.16667390688065928
22126.0,25318.0,0.2173700703765778
22136.0,25330.0,0.264143175836395
22146.0,25336.0,0.30600720909910595
22156.0,25332.0,0.34218637327728896
22167.0,25338.0,0.3721465089344922
22177.0,25337.0,0.3956042454182487
22186.0,25340.0,0.4125117463000213
22196.0,25341.0,0.42301782918312175
22206.0,25332.0,0.4274073364880557
22216.0,25332.0,0.42602343536089865
22226.0,25331.0,0.4191826363830645
22236.0,25336.0,0.4070956261062414
22246.0,25328.0,0.38980478521116785
22256.0,25322.0,0.3671449101298985
22267.0,25329.0,0.3387331624942437
22277.0,25329.0,0.3039956255905876
22286.0,25333.0,0.2622340604688183
22296.0,25328.0,0.21272820921936678
22306.0,25327.0,0.15486382882038044
22316.0,25336.0,0.08827689401690962
22326.0,25346.0,0.013004095007567553
22336.0,25345.0,-0.07037655300942143
22346.0,25342.0,-0.16063920961902456
22357.0,25342.0,-0.25586227031825876
22367.0,25335.0,-0.3534546086596679
22376.0,25322.0,-0.4502604851739514
22386.0,25318.0,-0.5427372116127693
22396.0,25293.0,-0.6271888164520297
22406.0,25299.0,-0.7000287092565118
22416.0,25291.0,-0.7580383815510978
22426.0,25290.0,-0.7985912363666681
22436.0,25299.0,-0.8198198359612583
22447.0,25297.0,-0.8207158129347015
22457.0,25309.0,-0.8011613960888353
22467.0,25307.0,-0.7618993133290749
22476.0,25313.0,-0.7044521802409065
22486.0,25321.0,-0.6310030702839343
22496.0,25325.0,-0.5442482168412046
22506.0,25333.0,-0.44723323553899635
22516.0,25338.0,-0.34318534206960094
22526.0,25346.0,-0.23535393108032224
22537.0,25348.0,-0.12687061939747568
22547.0,25351.0,-0.02063765191524822
22557.0,25346.0,0.08075069891935473
22567.0,25353.0,0.17505564715371344
22576.0,25358.0,0.26041808530070804
22586.0,25360.0,0.3353681332577913
22596.0,25359.0,0.39882517254081457
22606.0,25360.0,0.4500912274417746
22616.0,25366.0,0.4888420030752477
22626.0,25376.0,0.5151204276493492
22637.0,25371.0,0.5293331428567094
22647.0,25366.0,0.5322450029643211
22657.0,25372.0,0.5249674940619254
22667.0,25379.0,0.5089423019345484
22676.0,25376.0,0.4859216733678482
22686.0,25377.0,0.45794172812359085
22696.0,25372.0,0.4272822885040141
22706.0,25377.0,0.39641042021510753
22716.0,25372.0,0.3679092454791476
22726.0,25379.0,0.34439462558544826
22737.0,25376.0,0.32842106745917843
22747.0,25376.0,0.322376998795469
22757.0,25375.0,0.32837007469716456
22767.0,25371.0,0.34810610127506264
22777.0,25374.0,0.38276918092814033
22786.0,25375.0,0.43291345052987057
22796.0,25375.0,0.49837687141589154
22806.0,25370.0,0.5782261279920292
22816.0,25375.0,0.6707418524663565
22826.0,25388.0,0.7734544997901854
22837.0,25405.0,0.8832370883730933
22847.0,25405.0,0.9964488859810339
22857.0,25411.0,1.1091119788255734
22867.0,25422.0,1.2171003190829393
22877.0,25425.0,1.3163259608025943
22886.0,25430.0,1.402910788488262
22896.0,25436.0,1.4733330531169813
22906.0,25429.0,1.5245408433066059
22916.0,25442.0,1.5540297967288437
22926.0,25428.0,1.5598874888385186
22937.0,25439.0,1.5408100005222065
22947.0,25437.0,1.496096220022029
22957.0,25426.0,1.4256232088768308
22967.0,25416.0,1.3298044303957497
22977.0,25415.0,1.2095350195094952
22987.0,25412.0,1.0661326203272241
22996.0,25403.0,0.9012827292439558
23006.0,25391.0,0.7169938977032321
23016.0,25382.0,0.5155668677148111
23026.0,25387.0,0.2995838472893224
23037.0,25382.0,0.07192253646715116
23047.0,25388.0,-0.16421004905072364
23057.0,25372.0,-0.40524063905107416
23067.0,25368.0,-0.6472112090304155
23077.0,25368.0,-0.885796277436332
23087.0,25352.0,-1.116366328047541
23096.0,25343.0,-1.334103010593989
23106.0,25326.0,-1.5341661545292526
23116.0,25313.0,-1.7119026313313372
23126.0,25304.0,-1.8630766118857973
23137.0,25298.0,-1.9840950293327029
23147.0,25295.0,-2.0722027847144093
23157.0,25298.0,-2.12562822654605
23167.0,25292.0,-2.1436676705917077
23177.0,25308.0,-2.126705294485798
23187.0,25305.0,-2.0761710221536918
23197.0,25316.0,-1.9944448970409812
23206.0,25322.0,-1.8847209345604263
23216.0,25329.0,-1.7508449956592695
23226.0,25326.0,-1.5971404038707122
23237.0,25339.0,-1.428231700779542
23247.0,25349.0,-1.2488719818223282
23257.0,25358.0,-1.0637777461477864
23267.0,25361.0,-0.8774784845622183
23277.0,25363.0,-0.6941897088849049
23287.0,25365.0,-0.5177131065425792
23297.0,25375.0,-0.35135966942853686
23306.0,25394.0,-0.1978883286359412
23316.0,25386.0,-0.05945740820283701
23327.0,25393.0,0.06240658736961811
23337.0,25405.0,0.16681785896976375
23347.0,25404.0,0.25351722234213614
23357.0,25409.0,0.32283511214036054
23367.0,25404.0,0.3756303880247566
23377.0,25404.0,0.41320653277322666
23387.0,25408.0,0.4372124647907491
23397.0,25404.0,0.44953812509203916
23406.0,25406.0,0.4522138143067881
23416.0,25411.0,0.44731955418905495
23427.0,25408.0,0.43690802641209947
23437.0,25409.0,0.42294156716029835
23447.0,25412.0,0.4072417085994529
23457.0,25411.0,0.39144954081324074
23467.0,25414.0,0.37699466524840597
23477.0,25407.0,0.36506963068583226
23487.0,25405.0,0.35660796568563363
23497.0,25411.0,0.35226758321069807
23507.0,25406.0,0.3524238419252249
23516.0,25413.0,0.3571749671884897
23527.0,25416.0,0.36635876098857156
23537.0,25409.0,0.37957658411115486
23547.0,25411.0,0.3962201101876998
23557.0,25414.0,0.4154992966753489
23567.0,25415.0,0.4364732994459738
23577.0,25418.0,0.4580853154721682
23587.0,25409.0,0.4791996783695701
23597.0,25425.0,0.49863957018627786
23607.0,25415.0,0.5152252254487508
23616.0,25423.0,0.5278116911586124
23627.0,25421.0,0.5353232649697446
23637.0,25416.0,0.5367819156750792
23647.0,25420.0,0.5313291537141592
23657.0,25413.0,0.5182434344100144
23667.0,25422.0,0.49695664859635535
23677.0,25425.0,0.46707162499962757
23687.0,25407.0,0.42837834533422425
23697.0,25407.0,0.3808652690659772
23707.0,25411.0,0.32472785841249435
23717.0,25408.0,0.260381868290561
23727.0,25415.0,0.18848519964983218
23737.0,25407.0,0.10996329950600764
23747.0,25396.0,0.026028906407278615
23757.0,25409.0,-0.061809979434091035
23767.0,25403.0,-0.1517553682946096
23777.0,25402.0,-0.24174032775427337
23787.0,25396.0,-0.3294726594742185
23797.0,25384.0,-0.41250679570308985
23807.0,25385.0,-0.4883417811507603
23817.0,25378.0,-0.554535614676701
23827.0,25377.0,-0.608823594359767
23837.0,25377.0,-0.6492302311931364
23847.0,25375.0,-0.6741675687918267
23857.0,25374.0,-0.6825154731336024
23867.0,25379.0,-0.6736812255762437
23877.0,25381.0,-0.647637140451063
23887.0,25384.0,-0.6049373302057985
23897.0,25379.0,-0.5467170929863281
23907.0,25379.0,-0.4746772700099636
23917.0,25385.0,-0.3910511132668285
23928.0,25386.0,-0.29854761650481376
23937.0,25393.0,-0.20026680624579876
23947.0,25400.0,-0.09958730598099723
23957.0,25391.0,-3.056295879202574e-05
23967.0,25403.0,0.09489308250371202
23977.0,25407.0,0.1818534180462613
23987.0,25423.0,0.2578810374074151
23997.0,25429.0,0.32054912532929797
24007.0,25431.0,0.3681365022951516
24017.0,25438.0,0.399748840132876
24028.0,25434.0,0.4153802716277862
24038.0,25428.0,0.4159070636287465
24047.0,25433.0,0.4030132275395996
24057.0,25426.0,0.37905299278126875
24067.0,25403.0,0.3468586908117906
24077.0,25403.0,0.30950954368845124
24087.0,25403.0,0.2700874688610787
24097.0,25402.0,0.23145030778636086
24107.0,25397.0,0.1960448831748269
24117.0,25392.0,0.16577136811330942
24128.0,25403.0,0.1419058055600827
24138.0,25402.0,0.12508510381886176
24147.0,25410.0,0.11535177102069755
24157.0,25412.0,0.11224643985145352
24167.0,25407.0,0.11493109401760813
24177.0,25410.0,0.1223268871148436
24187.0,25416.0,0.13325514282724624
24197.0,25428.0,0.1465727867731681
24207.0,25424.0,0.16128993490833068
24217.0,25421.0,0.17665259924623283
24228.0,25416.0,0.1921765901738261
24238.0,25415.0,0.2076300594191368
24248.0,25417.0,0.22297290305015424
24257.0,25410.0,0.23826518451013906
24267.0,25405.0,0.2535564642234254
24277.0,25397.0,0.268769490566794
24287.0,25404.0,0.28359595313107266
24297.0,25401.0,0.2974232884969709
24307.0,25412.0,0.30930568656069274
24317.0,25408.0,0.3179823457332843
24327.0,25405.0,0.3219379307537953
24338.0,25417.0,0.31949765729357277
24348.0,25412.0,0.3089498642149277
24357.0,25412.0,0.28868742718803364
24367.0,25416.0,0.25735701774265307
24377.0,25412.0,0.214005458280742
24387.0,25418.0,0.15821330598232583
24397.0,25417.0,0.09020488598221013
24407.0,25417.0,0.0109224031530181
24417.0,25417.0,-0.07794882587515735
24427.0,25406.0,-0.17401513941947233
24438.0,25395.0,-0.2742747733260898
24448.0,25388.0,-0.375279286058821
24458.0,25380.0,-0.473341047205944
24467.0,25375.0,-0.5647653437142789
24477.0,25370.0,-0.6460855771326696
24487.0,25357.0,-0.7142826617847207
24497.0,25358.0,-0.7669712421577323
24507.0,25361.0,-0.8025359261931118
24517.0,25363.0,-0.8202048425677635
24527.0,25371.0,-0.8200575269452529
24538.0,25370.0,-0.8029747310400382
24548.0,25375.0,-0.7705438995060148
24558.0,25372.0,-0.724934783218342
24568.0,25376.0,-0.6687566645167032
24577.0,25379.0,-0.6049047531864139
24587.0,25388.0,-0.5364015177309466
24597.0,25384.0,-0.4662402047641684
24607.0,25383.0,-0.39723951147191905
24617.0,25387.0,-0.33191587254089316
24627.0,25400.0,-0.27237502191090696
24638.0,25400.0,-0.2202246973960115
24648.0,25390.0,-0.17651565633596433
24658.0,25397.0,-0.1417188645219
24668.0,25395.0,-0.11573930854079277
24678.0,25386.0,-0.09795989986293087
24687.0,25397.0,-0.0873072276807219
24697.0,25394.0,-0.0823313591837691
24707.0,25391.0,-0.08129397100861065
24717.0,25386.0,-0.08226187889092824
24727.0,25400.0,-0.08320248013641715
24738.0,25399.0,-0.08207679661804294
24748.0,25396.0,-0.0769303483817811
24758.0,25390.0,-0.06598666498235047
24768.0,25386.0,-0.0477444573439524
24778.0,25398.0,-0.02107085786117769
24787.0,25397.0,0.01471970968515343
24797.0,25391.0,0.059806010979077895
24807.0,25384.0,0.1138202777787244
24817.0,25398.0,0.1758324231919328
24827.0,25394.0,0.24436742739328735
24838.0,25405.0,0.31746190064861013
24848.0,25406.0,0.39275724115441346
24858.0,25407.0,0.46762106939867537
24868.0,25421.0,0.5392872284489205
24878.0,25418.0,0.6050042446550291
24888.0,25426.0,0.6621805823659628
24897.0,25432.0,0.7085137002656553
24907.0,25425.0,0.7420906123045117
24917.0,25411.0,0.7614512070840574
24927.0,25420.0,0.7656141517159493
24938.0,25420.0,0.754075354876307
24948.0,25419.0,0.726790527896708
24958.0,25404.0,0.6841465929311467
24968.0,25401.0,0.6269241506520475
24978.0,25406.0,0.5562588304863726
24988.0,25400.0,0.47361257091842596
24997.0,25411.0,0.38075963160385473
25007.0,25404.0,0.2797817172962988
25017.0,25401.0,0.17305961684573487
25027.0,25397.0,0.0632481819593626
25038.0,25386.0,-0.0467734395012762
25048.0,25389.0,-0.15397746230891
25058.0,25382.0,-0.2552856484214964
25068.0,25371.0,-0.3476856135412441
25078.0,25367.0,-0.4283600499526475
25088.0,25366.0,-0.494820181431737
25097.0,25362.0,-0.5450319777669835
25107.0,25358.0,-0.5775253781744136
25117.0,25346.0,-0.5914793832328802
25127.0,25360.0,-0.5867749413666669
25138.0,25366.0,-0.5640071047444527
25148.0,25367.0,-0.5244549093620682
25158.0,25360.0,-0.470018043880631
25168.0,25368.0,-0.40313197127927536
25178.0,25367.0,-0.3266668019113701
25188.0,25369.0,-0.24381016754021675
25197.0,25373.0,-0.15793472905473122
25207.0,25379.0,-0.0724528060932833
25217.0,25381.0,0.009337491925638678
25228.0,25390.0,0.08440745560379179
25238.0,25384.0,0.1501447779423572
25248.0,25397.0,0.2044826982370399
25258.0,25400.0,0.2460026862117323
25268.0,25398.0,0.274001770276958
25278.0,25393.0,0.288515114267893
25288.0,25390.0,0.2902887894144851
25298.0,25395.0,0.280706221252699
25307.0,25388.0,0.26167711810015165
25317.0,25382.0,0.2354974382241217
25328.0,25372.0,0.20468923214956056
25338.0,25372.0,0.17183397458946426
25348.0,25374.0,0.13941741376508507
25358.0,25376.0,0.10970137364355013
25368.0,25370.0,0.08462930126703327
25378.0,25372.0,0.06576509580725214
25388.0,25374.0,0.05426308203610392
25398.0,25382.0,0.05086687172503587
25407.0,25377.0,0.05593144438311223
25417.0,25377.0,0.06945863217303665
25428.0,25376.0,0.09113697895950275
25438.0,25380.0,0.12038196894870373
25448.0,25382.0,0.15637584693231069
25458.0,25391.0,0.19810484696873099
25468.0,25376.0,0.2443885305212548
25478.0,25383.0,0.29389634719687935
25488.0,25377.0,0.34515257766261187
25498.0,25380.0,0.39653756101146576
25507.0,25388.0,0.44629446208872975
25518.0,25381.0,0.4925470024169433
25528.0,25386.0,0.5333289987941515
25538.0,25373.0,0.5666255554184331
25548.0,25384.0,0.5904290144084475
25558.0,25389.0,0.6028151866295571
25568.0,25387.0,0.6020412504503955
25578.0,25390.0,0.5866581503613714
25588.0,25382.0,0.555625644689423
25598.0,25391.0,0.5084200777281214
25607.0,25389.0,0.4451277050091878
25618.0,25391.0,0.3665150643981037
25628.0,25383.0,0.27406463260163166
25638.0,25375.0,0.16996464855371443
25648.0,25377.0,0.05704821681476667
25658.0,25375.0,-0.061316623274532536
25668.0,25360.0,-0.1813824786952623
25678.0,25349.0,-0.29922011256997266
25688.0,25333.0,-0.4109476686715858
25697.0,25332.0,-0.5129702344281939
25708.0,25321.0,-0.6022018449369362
25718.0,25314.0,-0.6762441701267817
25728.0,25325.0,-0.7335026864722197
25738.0,25324.0,-0.7732293839469682
25748.0,25330.0,-0.7954925016683357
25758.0,25336.0,-0.8010857983486911
25768.0,25333.0,-0.7913967310579927
25778.0,25337.0,-0.7682536130899389
25788.0,25341.0,-0.7337686554629287
25798.0,25342.0,-0.6901898280587109
25808.0,25341.0,-0.6397720775245747
25818.0,25336.0,-0.5846757902552615
25828.0,25343.0,-0.5268949610281163
25838.0,25344.0,-0.46821215666314286
25848.0,25339.0,-0.4101762184908254
25858.0,25337.0,-0.354099417322841
25868.0,25338.0,-0.3010683159547362
25878.0,25338.0,-0.2519584701664556
25888.0,25346.0,-0.20744295384019146
25898.0,25353.0,-0.16798985663461932
25908.0,25350.0,-0.13385151302067974
25918.0,25348.0,-0.10505349608700522
25928.0,25355.0,-0.08139032229167606
25938.0,25357.0,-0.0624303692955109
25948.0,25360.0,-0.047531768705206943
25958.0,25349.0,-0.03587358404506778
25968.0,25351.0,-0.026505342509738312
25978.0,25347.0,-0.018411260567363877
25989.0,25347.0,-0.010579520485497554
25998.0,25355.0,-0.0020666673215803512
26008.0,25344.0,0.007948695532588378
26018.0,25343.0,0.020125020033474356
26028.0,25351.0,0.03493230882233547
26038.0,25353.0,0.05264618765496432
26048.0,25360.0,0.07336191714470579
26058.0,25354.0,0.09702118757652066
26068.0,25360.0,0.12344137005449625
26079.0,25355.0,0.15234000719218782
26088.0,25360.0,0.18335204407442943
26098.0,25358.0,0.2160400024246808
26108.0,25357.0,0.24989813678513237
26118.0,25358.0,0.2843523065259912
26128.0,25355.0,0.3187587003506515
26138.0,25364.0,0.3524056154001304
26148.0,25369.0,0.3845210264727699
26158.0,25363.0,0.4142840900224218
26168.0,25365.0,0.4408350277057794
26179.0,25364.0,0.4632797453617321
26188.0,25365.0,0.4806906013935121
26198.0,25365.0,0.4921069890144817
26208.0,25349.0,0.4965391067381163
26218.0,25361.0,0.49298002830073295
26228.0,25357.0,0.48043430228852635
26238.0,25361.0,0.45796956682750223
26248.0,25364.0,0.42479005253653235
26258.0,25354.0,0.38032402862413905
26269.0,25360.0,0.3243157137707298
26279.0,25363.0,0.2569139532941929
26288.0,25356.0,0.17875015732489616
26298.0,25364.0,0.0909952785272037
26308.0,25357.0,-0.004616167945177983
26318.0,25354.0,-0.10580595943797376
26328.0,25349.0,-0.2098236361274876
26338.0,25337.0,-0.31357164383093467
26348.0,25320.0,-0.41377804478348174
26359.0,25315.0,-0.5072007589014705
26369.0,25309.0,-0.5908382609709151
26379.0,25311.0,-0.6621195220632415
26388.0,25308.0,-0.7190529826464558
26398.0,25307.0,-0.7603248947385622
26408.0,25304.0,-0.7853448258031342
26418.0,25311.0,-0.7942390682384609
26428.0,25318.0,-0.7877948860885271
26438.0,25323.0,-0.7673639678761854
26448.0,25320.0,-0.7347404662094122
26459.0,25322.0,-0.6920312732357621
26469.0,25321.0,-0.6415312604009217
26478.0,25322.0,-0.5856088456530322
26488.0,25332.0,-0.526602973426604
26498.0,25321.0,-0.46673249587410637
26508.0,25326.0,-0.4080197756745333
26518.0,25331.0,-0.3522284126554624
26528.0,25333.0,-0.3008125796582142
26538.0,25332.0,-0.25487708286930794
26549.0,25332.0,-0.21515012983864687
26559.0,25338.0,-0.18197007112716365
26569.0,25341.0,-0.15528567078964114
26578.0,25346.0,-0.13467120447622716
26588.0,25338.0,-0.1193611227307828
26598.0,25333.0,-0.10830849896929255
26608.0,25334.0,-0.10026479143513732
26618.0,25337.0,-0.09387081942093235
26628.0,25342.0,-0.08774789612079276
26639.0,25328.0,-0.08058364915689929
26649.0,25334.0,-0.07121078597184248
26659.0,25337.0,-0.05867461516474439
26668.0,25335.0,-0.04228287378301701
26678.0,25337.0,-0.021634532126892803
26688.0,25333.0,0.003372007741289562
26698.0,25346.0,0.0325507121482405
26708.0,25345.0,0.06545861846174346
26718.0,25346.0,0.10144041919913499
26729.0,25349.0,0.13967849664236984
26739.0,25339.0,0.17924157463985685
26749.0,25348.0,0.21913045017958993
26759.0,25350.0,0.2583236751360332
26768.0,25353.0,0.2958256904845359
26778.0,25358.0,0.3307151070835659
26788.0,25342.0,0.3621872390301037
26798.0,25348.0,0.389587726204463
26808.0,25358.0,0.41244097097033083
26819.0,25364.0,0.43047879086427865
26829.0,25355.0,0.44366672482682123
26839.0,25355.0,0.4522181648782749
26849.0,25355.0,0.45659009086196334
26859.0,25359.0,0.4574624835960609
26868.0,25361.0,0.45570557962750885
26878.0,25349.0,0.452335600475064
26888.0,25356.0,0.44845849614947986
26898.0,25345.0,0.44520536337830185
26909.0,25354.0,0.4436674834620405
26919.0,25360.0,0.444838446359691
26929.0,25345.0,0.44956593704458864
26939.0,25364.0,0.45851123229947777
26949.0,25353.0,0.472114018002875
26958.0,25358.0,0.49056118393372117
26968.0,25353.0,0.5137585277371158
26978.0,25351.0,0.5413065070302476
26988.0,25362.0,0.5724847694902001
26998.0,25357.0,0.6062504557515025
27009.0,25364.0,0.6412512752406956
27019.0,25357.0,0.6758506141343945
27029.0,25353.0,0.7081627156165227
27039.0,25355.0,0.7361007332044598
27049.0,25359.0,0.7574446616247342
27058.0,25364.0,0.7699347292826951
27068.0,25366.0,0.771388449590985
27078.0,25356.0,0.7598322512698112
27088.0,25359.0,0.7336376614876519
27099.0,25369.0,0.6916561850608784
27109.0,25379.0,0.6333473428013204
27119.0,25360.0,0.5588863132141793
27129.0,25370.0,0.4692311312970837
27139.0,25354.0,0.3661344421707248
27148.0,25358.0,0.2520956297360061
27158.0,25353.0,0.1302556434708246
27168.0,25335.0,0.00423876306900933
27178.0,25326.0,-0.12205133006212417
27189.0,25310.0,-0.24466564141969527
27199.0,25311.0,-0.35984892942553276
27209.0,25306.0,-0.4642556857838738
27219.0,25300.0,-0.5551213530947956
27229.0,25300.0,-0.6303767300187412
27239.0,25313.0,-0.688700897716551
27248.0,25314.0,-0.7295154595966744
27258.0,25308.0,-0.7529327968121362
27268.0,25309.0,-0.7596765565677924
27279.0,25311.0,-0.7509881709942452
27289.0,25320.0,-0.7285260780286801
27299.0,25312.0,-0.6942632576078109
27309.0,25303.0,-0.6503902337411444
27319.0,25321.0,-0.5992267067941214
27329.0,25311.0,-0.543138380731783
27338.0,25321.0,-0.4844553551485769
27348.0,25324.0,-0.42539328474040866
27358.0,25313.0,-0.3679809404708208
27369.0,25329.0,-0.31399632314018155
27379.0,25327.0,-0.2649109703547034
27389.0,25340.0,-0.22184293116833953
27399.0,25335.0,-0.18552415071763378
27409.0,25324.0,-0.15629110269158356
27419.0,25340.0,-0.134102612377744
27429.0,25333.0,-0.11858074728476178
27438.0,25332.0,-0.10906847140245503
27448.0,25329.0,-0.10470006604365051
27459.0,25321.0,-0.10447891519328523
27469.0,25329.0,-0.10735239558857763
27479.0,25335.0,-0.1122723824017504
27489.0,25340.0,-0.11823609318752562
27499.0,25334.0,-0.1243121073969573
27509.0,25329.0,-0.1296613126151681
27519.0,25335.0,-0.13355779799525874
27528.0,25335.0,-0.13540736069028236
27538.0,25342.0,-0.1347604062047974
27548.0,25333.0,-0.13132082599573777
27559.0,25330.0,-0.124954814499403
27569.0,25332.0,-0.11569935808873168
27579.0,25330.0,-0.10376392025091415
27589.0,25347.0,-0.08951803426287992
27599.0,25330.0,-0.073463319978912
27609.0,25345.0,-0.056194671596948305
27619.0,25341.0,-0.03835636318681795
27628.0,25349.0,-0.02059707497721599
27638.0,25351.0,-0.003528658702265877
27649.0,25334.0,0.012304964392620627
27659.0,25345.0,0.026445792966648837
27669.0,25351.0,0.03853087518537088
27679.0,25346.0,0.04829886819813628
27689.0,25343.0,0.05559503340170227
27699.0,25352.0,0.060372766182253144
27709.0,25348.0,0.06269230459604462
27719.0,25351.0,0.0627179477346015
27728.0,25354.0,0.06071276008841408
27739.0,25346.0,0.05702888223493348
27749.0,25354.0,0.05209296056626713
27759.0,25357.0,0.04638784526587613
27769.0,25351.0,0.04043124461974409
27779.0,25356.0,0.03475000856149127
27789.0,25346.0,0.029849339123321134
27799.0,25359.0,0.026179840199409495
27809.0,25360.0,0.024106831459803555
27818.0,25352.0,0.02388317953392183
27829.0,25357.0,0.025623694573300142
27839.0,25345.0,0.029281619798152844
27849.0,25356.0,0.03463363855156058
27859.0,25356.0,0.04128224448324222
27869.0,25355.0,0.0486808047633735
27879.0,25363.0,0.05618076641971487
