timestamp_ms,ir_value,ir_filtered
6905.0,26667.0,-0.018248250542169213
6915.0,26632.0,-0.055569565118312694
6925.0,26602.0,-0.09172815915564803
6935.0,26567.0,-0.1255857476283624
6946.0,26553.0,-0.15612542431341128
6956.0,26530.0,-0.18249929667093884
6965.0,26523.0,-0.20406417880608335
6975.0,26516.0,-0.2204032948852309
6985.0,26509.0,-0.231333053696098
6995.0,26518.0,-0.23689494023890578
7005.0,26541.0,-0.23733349027335485
7015.0,26559.0,-0.23306244247302493
7025.0,26580.0,-0.2246225535785161
7035.0,26591.0,-0.21263564517719294
7045.0,26595.0,-0.19775959328912132
7056.0,26606.0,-0.18064813832747795
7066.0,26602.0,-0.1619180330339421
7076.0,26603.0,-0.1421246442065276
7085.0,26615.0,-0.12174591573779132
7095.0,26616.0,-0.10117374496125725
7105.0,26636.0,-0.08071151583724592
7115.0,26660.0,-0.06057674776583686
7125.0,26672.0,-0.040908399639763296
7135.0,26670.0,-0.021779009051257105
7145.0,26673.0,-0.0032118704979196694
7155.0,26679.0,0.014797435881263145
7165.0,26671.0,0.032256970803345206
7176.0,26678.0,0.04915426457837585
7186.0,26685.0,0.06543468013749017
7195.0,26693.0,0.08098476173399806
7205.0,26703.0,0.09562240091434411
7215.0,26702.0,0.10909483719151057
7225.0,26712.0,0.12108491133396983
7235.0,26729.0,0.13122563091922682
7245.0,26742.0,0.13912259318637796
7255.0,26759.0,0.1443828720570527
7265.0,26762.0,0.14664793371743554
7275.0,26767.0,0.1456275500185854
7286.0,26766.0,0.1411317231777338
7296.0,26775.0,0.13309805950055234
7305.0,26765.0,0.12161241645674097
7315.0,26755.0,0.10692089966888853
7325.0,26740.0,0.08943174862451495
7335.0,26723.0,0.06970651999500455
7345.0,26715.0,0.048440937428104694
7355.0,26697.0,0.026436412483022774
7365.0,26677.0,0.004563517429739712
7375.0,26646.0,-0.016281023118213344
7385.0,26633.0,-0.03522161071716534
7395.0,26615.0,-0.05145232685557215
7406.0,26602.0,-0.06428342368911538
7415.0,26589.0,-0.07318264724895501
7425.0,26591.0,-0.07780873876856864
7435.0,26579.0,-0.0780349479586372
7445.0,26591.0,-0.0739609895974315
7455.0,26594.0,-0.06591255742970419
7465.0,26605.0,-0.054428252504112026
7475.0,26615.0,-0.04023456723859622
7485.0,26626.0,-0.024210226889945657
7495.0,26640.0,-0.007341634579806533
7505.0,26662.0,0.00932848187085472
7516.0,26684.0,0.02475666579958499
7525.0,26702.0,0.03795536756494687
7535.0,26707.0,0.0480468287306073
7545.0,26704.0,0.05431039679703641
7555.0,26718.0,0.056220201875327336
7565.0,26705.0,0.05347119635252319
7575.0,26700.0,0.0459923817241391
7585.0,26682.0,0.03394671286255854
7595.0,26662.0,0.017718039470492556
7605.0,26638.0,-0.0021135424045472108
7615.0,26624.0,-0.024805678078236013
7626.0,26608.0,-0.04949433606177422
7635.0,26586.0,-0.07523828792249485
7645.0,26569.0,-0.10106516112077732
7655.0,26553.0,-0.1260170085531699
7665.0,26545.0,-0.14919348043748668
7675.0,26527.0,-0.1697909767403207
7685.0,26511.0,-0.1871365674304441
7695.0,26507.0,-0.2007156726464194
7705.0,26487.0,-0.21019246999955715
7715.0,26488.0,-0.21542200920147955
7725.0,26481.0,-0.21645316105191983
7736.0,26491.0,-0.21352182055866817
7745.0,26484.0,-0.20703430446544088
7755.0,26489.0,-0.1975414676725729
7765.0,26485.0,-0.1857043669528864
7775.0,26505.0,-0.1722523286737386
7785.0,26527.0,-0.1579345044340192
7795.0,26546.0,-0.14346685580004415
7805.0,26582.0,-0.12947782256322943
7815.0,26595.0,-0.11645709882672009
7825.0,26617.0,-0.10471254045736092
7835.0,26621.0,-0.0943400733375175
7846.0,26634.0,-0.08521055698955148
7855.0,26611.0,-0.07697611738610233
7865.0,26592.0,-0.06909661170500198
7875.0,26569.0,-0.06088452165914209
7885.0,26549.0,-0.051564031543903946
7895.0,26531.0,-0.04033815442495852
7905.0,26539.0,-0.02645700211229383
7915.0,26552.0,-0.009280681026586005
7925.0,26562.0,0.011668244023473736
7935.0,26576.0,0.03666577975507037
7945.0,26594.0,0.06576246691378079
7955.0,26633.0,0.09877473151388745
7965.0,26670.0,0.13529113270728996
7975.0,26704.0,0.17469164695331227
7985.0,26723.0,0.21617678929201015
7995.0,26740.0,0.25880293750383243
8005.0,26770.0,0.30152091805760867
8015.0,26786.0,0.3432159851708864
8025.0,26810.0,0.3827479497588635
8035.0,26816.0,0.4189903914970833
8045.0,26833.0,0.45086810485026474
8055.0,26843.0,0.47739232626486455
8065.0,26852.0,0.49769357426849226
8075.0,26863.0,0.5110518975467908
8085.0,26863.0,0.5169240643431284
8095.0,26848.0,0.5149669903587604
8105.0,26865.0,0.5050567057318014
8115.0,26855.0,0.4873022252757106
8125.0,26848.0,0.46205334082455235
8135.0,26844.0,0.42990073241739823
8145.0,26813.0,0.3916665275747233
8155.0,26802.0,0.34838371169031995
8165.0,26777.0,0.3012633849772466
8175.0,26733.0,0.25164955030642444
8185.0,26681.0,0.20096197859163903
8195.0,26611.0,0.1506292153342872
8205.0,26549.0,0.1020160745281167
8215.0,26515.0,0.056352203513272726
8225.0,26497.0,0.014669245134748344
8235.0,26489.0,-0.02224703862242662
8245.0,26470.0,-0.053886105696273404
8255.0,26457.0,-0.0800226913613349
8265.0,26472.0,-0.10070857034087251
8275.0,26461.0,-0.11624794953992619
8285.0,26462.0,-0.1271593129812968
8295.0,26477.0,-0.1341272783745398
8305.0,26473.0,-0.13794829918673554
8315.0,26481.0,-0.13947411925995531
8325.0,26482.0,-0.13955683118950926
8335.0,26494.0,-0.1389990203925064
8345.0,26501.0,-0.13851202182468134
8355.0,26481.0,-0.13868496912387354
8365.0,26455.0,-0.13996659103404657
8375.0,26438.0,-0.14266002833370844
8385.0,26424.0,-0.14692875031261918
8395.0,26420.0,-0.1528102160229798
8404.0,26409.0,-0.16023387493658378
8415.0,26403.0,-0.16904088423314828
8425.0,26392.0,-0.17900371792261432
8435.0,26391.0,-0.18984434091363828
8445.0,26393.0,-0.20125001112856528
8455.0,26396.0,-0.21288636564385013
8465.0,26383.0,-0.22440822676804947
8475.0,26377.0,-0.235469065950766
8485.0,26361.0,-0.24572988416654512
8495.0,26361.0,-0.25486762747822045
8505.0,26365.0,-0.2625827927008441
8514.0,26362.0,-0.2686060106966324
8525.0,26360.0,-0.27270394060906206
8535.0,26351.0,-0.2746851413733973
8545.0,26355.0,-0.27440635153011506
8555.0,26354.0,-0.27177911822559464
8565.0,26351.0,-0.26677643441283905
8575.0,26351.0,-0.25943896647518727
8585.0,26342.0,-0.24988027212424216
8595.0,26338.0,-0.23829000402390768
8605.0,26347.0,-0.22493364411798455
8615.0,26355.0,-0.2101471758568949
8624.0,26369.0,-0.1943255832921674
8634.0,26381.0,-0.17790501026306524
8645.0,26400.0,-0.16133934252318427
8655.0,26412.0,-0.14507266125060506
8665.0,26441.0,-0.12950953039207608
8675.0,26450.0,-0.11498552648966205
8685.0,26469.0,-0.10174076907661302
8695.0,26472.0,-0.08989924171769582
8705.0,26466.0,-0.07945619119660347
8715.0,26473.0,-0.07027487324128424
8725.0,26465.0,-0.06209268164744734
8734.0,26473.0,-0.05453572382172277
8744.0,26476.0,-0.04714044712969156
8755.0,26471.0,-0.03938085325920851
8765.0,26471.0,-0.03069984042795302
8775.0,26488.0,-0.02054304782347406
8785.0,26496.0,-0.008393480333664417
8795.0,26505.0,0.006194447714129995
8805.0,26511.0,0.023562285514035306
8815.0,26512.0,0.043917107567786745
8825.0,26535.0,0.0673044562870744
8835.0,26538.0,0.09358623271864727
8844.0,26544.0,0.12242511869045634
8854.0,26553.0,0.15327706605039684
8865.0,26550.0,0.18539362936493556
8875.0,26566.0,0.21783625415751445
8885.0,26586.0,0.24950461550462275
8895.0,26618.0,0.27918036429132154
8905.0,26643.0,0.3055860558725992
8915.0,26678.0,0.32745702373821944
8925.0,26722.0,0.343622114508654
8935.0,26764.0,0.35308759867507056
8945.0,26793.0,0.3551170525293351
8954.0,26817.0,0.3492989173531296
8964.0,26816.0,0.3355934369578338
8974.0,26774.0,0.31435209229608807
8985.0,26714.0,0.286305640176386
8995.0,26657.0,0.25252132208914807
9005.0,26619.0,0.21433457420734778
9015.0,26578.0,0.17326371006585337
9025.0,26555.0,0.1309166320178843
9035.0,26517.0,0.08889744120707858
9045.0,26503.0,0.048719179055162314
9055.0,26481.0,0.011727502367625523
9065.0,26468.0,-0.020961174241810272
9074.0,26467.0,-0.04850479412343754
9084.0,26456.0,-0.07036299311832979
9095.0,26458.0,-0.08630673781595871
9105.0,26463.0,-0.0964112455957986
9115.0,26469.0,-0.10103382360084498
9125.0,26480.0,-0.10077884976810889
9135.0,26481.0,-0.09645261181401579
9145.0,26485.0,-0.08901087868366363
9155.0,26494.0,-0.07950180677223773
9165.0,26512.0,-0.06900636135119285
9174.0,26526.0,-0.05857834600794992
9184.0,26556.0,-0.0491865534371023
9194.0,26560.0,-0.04166217978568217
9205.0,26565.0,-0.03665498201465385
9215.0,26571.0,-0.03460126540931942
9225.0,26576.0,-0.03570574145255042
9235.0,26564.0,-0.039938213335621635
9245.0,26549.0,-0.04704516020553939
9255.0,26527.0,-0.05657518623555055
9265.0,26526.0,-0.06791590568745365
9275.0,26508.0,-0.08033880009079035
9284.0,26503.0,-0.09304839363947434
9294.0,26490.0,-0.10523244409373486
9304.0,26477.0,-0.11611018425254421
9315.0,26479.0,-0.12497583057050778
9325.0,26481.0,-0.13123484025415183
9335.0,26490.0,-0.13443105173659012
9345.0,26495.0,-0.13426387185320665
9355.0,26500.0,-0.13059564364278153
9365.0,26504.0,-0.12344984779259745
9375.0,26524.0,-0.11300088779307224
9385.0,26540.0,-0.09955628586801032
9394.0,26561.0,-0.083532539981209
9404.0,26580.0,-0.0654265439021097
9414.0,26589.0,-0.045784901408935375
9424.0,26612.0,-0.025173409874826518
9435.0,26627.0,-0.004148585731596333
9445.0,26650.0,0.016767266020214954
9455.0,26669.0,0.03710605319119322
9465.0,26663.0,0.056467652050062614
9475.0,26672.0,0.07452657893385692
9485.0,26688.0,0.09103176840735767
9495.0,26688.0,0.10580061291607872
9504.0,26701.0,0.11870869816660282
9514.0,26708.0,0.1296765248887133
9524.0,26695.0,0.138654454437162
9534.0,26710.0,0.1456072832609608
9545.0,26719.0,0.15050009734899092
9555.0,26734.0,0.15328689306966978
9565.0,26738.0,0.15390259657915686
9575.0,26733.0,0.1522581846212713
9585.0,26725.0,0.14823839172826306
9595.0,26729.0,0.14170199430621475
9605.0,26719.0,0.13248522926898562
9614.0,26716.0,0.12040898565735392
9624.0,26703.0,0.10529013069404744
9634.0,26692.0,0.08695711110124844
9644.0,26696.0,0.06526984756799548
9655.0,26700.0,0.04014355529829976
9665.0,26694.0,0.011575184448070586
9675.0,26699.0,-0.02033002118959084
9685.0,26685.0,-0.05533514671075514
9695.0,26679.0,-0.09305485788493652
9705.0,26656.0,-0.13294836748651828
9715.0,26620.0,-0.17432438228368055
9724.0,26583.0,-0.2163589407469654
9734.0,26540.0,-0.25812521420007534
9744.0,26504.0,-0.2986324649027308
9754.0,26484.0,-0.3368700626532848
9765.0,26473.0,-0.3718521937590098
9775.0,26450.0,-0.4026596904307805
9785.0,26454.0,-0.42847672320185665
9795.0,26444.0,-0.4486212230207396
9805.0,26431.0,-0.4625686304880803
9815.0,26437.0,-0.46996892775581217
9825.0,26442.0,-0.47065690820955813
9834.0,26447.0,-0.4646556603644894
9844.0,26469.0,-0.4521735826371723
9854.0,26467.0,-0.4335956442864464
9864.0,26495.0,-0.4094697568634311
9875.0,26512.0,-0.3804890335564437
9885.0,26515.0,-0.34747058718700446
9895.0,26543.0,-0.31133135319609956
9905.0,26554.0,-0.2730610497244539
9915.0,26569.0,-0.2336919966755429
9925.0,26602.0,-0.19426541207688078
9935.0,26648.0,-0.15579408260247524
9944.0,26671.0,-0.11922221406956783
9954.0,26706.0,-0.08538465206709281
9964.0,26715.0,-0.05496856096562538
9974.0,26748.0,-0.02848050806637332
9985.0,26763.0,-0.006221235122962464
9995.0,26777.0,0.011730098046662562
10005.0,26795.0,0.025520679272850393
10015.0,26781.0,0.03551669509764525
10025.0,26773.0,0.04228356922438286
10035.0,26775.0,0.0465548138462314
10045.0,26776.0,0.04919185363206226
10054.0,26777.0,0.05113770555317913
10064.0,26779.0,0.05336705347543294
10074.0,26764.0,0.056834813739065966
10084.0,26772.0,0.06242528969903673
10094.0,26764.0,0.07090434422049888
10105.0,26768.0,0.08287724311933733
10115.0,26769.0,0.09875473718097431
10125.0,26767.0,0.11872972837738968
10135.0,26771.0,0.14276667993360856
10145.0,26786.0,0.17060574839094245
10155.0,26830.0,0.20178310996446053
10164.0,26864.0,0.23566758871934002
10174.0,26934.0,0.27151137850065754
10184.0,26990.0,0.30850997209429737
10194.0,27040.0,0.3458640727666021
10204.0,27057.0,0.3828349763336137
10215.0,27069.0,0.41878550287206745
10225.0,27060.0,0.45320120165699773
10235.0,27044.0,0.4856903386741642
10245.0,27039.0,0.5159649041059869
10255.0,27041.0,0.543807671388004
10265.0,27036.0,0.5690316402771948
10274.0,27030.0,0.5914381116192794
10284.0,27027.0,0.6107790133945029
10294.0,27021.0,0.6267285514126439
10304.0,27037.0,0.638868626298166
10314.0,27052.0,0.6466912619545606
10325.0,27074.0,0.6496193032721658
10335.0,27101.0,0.6470441291884161
10345.0,27100.0,0.6383767313903863
10355.0,27117.0,0.6231068607826652
10365.0,27122.0,0.6008642824933343
10375.0,27125.0,0.5714761225564805
10384.0,27121.0,0.5350143334909813
10394.0,27104.0,0.49182753296835935
10404.0,27050.0,0.44255233354403634
10414.0,26994.0,0.3881012008047307
10424.0,26929.0,0.329626924226886
10435.0,26858.0,0.2684672144485516
10445.0,26807.0,0.20607561770706473
10455.0,26771.0,0.14394620194748176
10465.0,26729.0,0.08353914414756712
10475.0,26707.0,0.02621275657832039
10485.0,26673.0,-0.026834475560694536
10494.0,26651.0,-0.07460985911560966
10504.0,26622.0,-0.11635950716667526
10514.0,26593.0,-0.15158798343529742
10524.0,26598.0,-0.18006436199254985
10534.0,26590.0,-0.20181483499511646
10545.0,26574.0,-0.21710288404641984
10555.0,26575.0,-0.22639898227911986
10565.0,26577.0,-0.23034208000932518
10575.0,26576.0,-0.229695002228173
10585.0,26581.0,-0.2252959556351381
10595.0,26594.0,-0.2180085116671442
10604.0,26607.0,-0.20867252865650318
10614.0,26626.0,-0.19805869362253428
10624.0,26630.0,-0.18682967313810286
10634.0,26651.0,-0.17551090288076612
10644.0,26653.0,-0.1644736413504914
10655.0,26638.0,-0.15393214864550767
10665.0,26626.0,-0.14395560347261585
10675.0,26598.0,-0.1344934506473731
10685.0,26594.0,-0.12541071542900772
10695.0,26589.0,-0.1165283388267746
10705.0,26579.0,-0.10766332447459151
10714.0,26584.0,-0.09866419142171537
10724.0,26584.0,-0.08943822756283792
10734.0,26613.0,-0.07996809502853433
10744.0,26626.0,-0.07031673811561273
10754.0,26654.0,-0.0606213343371597
10765.0,26670.0,-0.05107871929594897
10775.0,26672.0,-0.04192573955416697
10785.0,26669.0,-0.033418042263385905
10795.0,26678.0,-0.02580993051604497
10805.0,26685.0,-0.01933671030318549
10814.0,26681.0,-0.014200268676995392
10824.0,26684.0,-0.01055850987355026
10834.0,26676.0,-0.008519115761001625
10844.0,26671.0,-0.008137635914543436
10854.0,26671.0,-0.00941939448621307
10864.0,26674.0,-0.012324404339801887
10874.0,26670.0,-0.01677457344953614
10885.0,26666.0,-0.022662842810590337
10895.0,26642.0,-0.029864040786181927
10905.0,26641.0,-0.03824685285169421
10915.0,26638.0,-0.047685667701266615
10924.0,26633.0,-0.05807087005529663
10934.0,26623.0,-0.06931664271076306
10944.0,26611.0,-0.08136590551217374
10954.0,26612.0,-0.09419213814934524
10964.0,26597.0,-0.10779776916390325
10974.0,26593.0,-0.12220895922485084
10984.0,26592.0,-0.13746689592748645
10995.0,26572.0,-0.15361599001581597
11005.0,26562.0,-0.17068955176582015
11015.0,26563.0,-0.1886934950167616
11025.0,26553.0,-0.20758855113081792
11034.0,26561.0,-0.22727182483450253
11044.0,26562.0,-0.24755924969483886
11054.0,26547.0,-0.26817117357400505
11064.0,26550.0,-0.28872354760665503
11074.0,26546.0,-0.308726858489072
11084.0,26538.0,-0.32759436926325214
11094.0,26522.0,-0.34466073611832376
11105.0,26503.0,-0.3592113362085193
11115.0,26482.0,-0.37052137319927303
11125.0,26478.0,-0.377902358562758
11135.0,26465.0,-0.3807525119702442
11144.0,26458.0,-0.37860727070426275
11154.0,26430.0,-0.3711860922512458
11164.0,26413.0,-0.358431418669273
11174.0,26422.0,-0.340534946110612
11184.0,26449.0,-0.3179461126554381
11194.0,26496.0,-0.29135912590791274
11204.0,26551.0,-0.261677977395346
11215.0,26600.0,-0.2299626185703003
11225.0,26646.0,-0.197362497721044
11235.0,26679.0,-0.16504519865936587
11245.0,26704.0,-0.13412787222969083
11254.0,26714.0,-0.10561788151098063
11264.0,26727.0,-0.08036708912159575
11274.0,26713.0,-0.05904196002987727
11284.0,26730.0,-0.04210951438558879
11294.0,26706.0,-0.02983743724921475
11304.0,26710.0,-0.022305501036073237
11314.0,26704.0,-0.019424805255564948
11325.0,26702.0,-0.02096113383814864
11335.0,26714.0,-0.026559115515252713
11345.0,26727.0,-0.035764856784960636
11355.0,26730.0,-0.0480461042501261
11364.0,26739.0,-0.06281038810716573
11374.0,26719.0,-0.07942240829139989
11384.0,26689.0,-0.0972217346038096
11394.0,26680.0,-0.11554070239195253
11404.0,26671.0,-0.13372085649786322
11414.0,26668.0,-0.15112561445309763
11424.0,26673.0,-0.1671474627850136
11435.0,26687.0,-0.1812093231966291
11445.0,26698.0,-0.1927610965457889
11455.0,26712.0,-0.2012736064161684
11465.0,26727.0,-0.20623297691230194
11474.0,26736.0,-0.20713869381258718
11484.0,26741.0,-0.2035082480823754
11494.0,26741.0,-0.19489038185612634
11504.0,26748.0,-0.1808876013115641
11514.0,26751.0,-0.16118710047908574
11524.0,26759.0,-0.13559796219869252
11534.0,26773.0,-0.10409161800950253
11545.0,26786.0,-0.06684201281550065
11555.0,26790.0,-0.024261650880544175
11565.0,26808.0,0.02297051275389413
11575.0,26824.0,0.07389364560006713
11584.0,26845.0,0.12726642143934036
11594.0,26882.0,0.1815890011464996
11604.0,26930.0,0.23514815616894183
11614.0,26997.0,0.2860860588546432
11624.0,27054.0,0.3324904427304136
11634.0,27117.0,0.3725007329524982
11644.0,27171.0,0.4044222192049342
11655.0,27198.0,0.42683894088445784
11665.0,27229.0,0.43871582224529654
11675.0,27248.0,0.4394816290701174
11684.0,27255.0,0.42908604473651624
11694.0,27253.0,0.4080260510009909
11704.0,27226.0,0.3773387029064246
11714.0,27189.0,0.33855934268455384
11724.0,27145.0,0.2936464409840591
11734.0,27087.0,0.24487680216921917
11744.0,27024.0,0.1947176616454037
11754.0,26971.0,0.14568470278153334
11765.0,26928.0,0.10019670124487526
11775.0,26909.0,0.060437887568070614
11785.0,26909.0,0.02823790815601675
11794.0,26906.0,0.004976665624130671
11804.0,26902.0,-0.00848182055556309
11814.0,26903.0,-0.011824903614085934
11824.0,26902.0,-0.005295802081929293
11834.0,26911.0,0.010332804599245472
11844.0,26964.0,0.033815528235332036
11854.0,27024.0,0.06351949487566247
11864.0,27090.0,0.09753342200331713
11875.0,27147.0,0.13379247173946665
11885.0,27190.0,0.17020828415590794
11894.0,27228.0,0.20479308334725552
11904.0,27244.0,0.23576805972365691
11914.0,27251.0,0.26164868248582224
11924.0,27251.0,0.28130267684814436
11934.0,27257.0,0.2939796083134499
11944.0,27243.0,0.29931358289856463
11954.0,27219.0,0.2973020405819658
11964.0,27187.0,0.288264490812652
11974.0,27151.0,0.2727861952186755
11985.0,27129.0,0.2516533069110806
11995.0,27129.0,0.22578685061228765
12004.0,27120.0,0.196182187649853
12014.0,27121.0,0.1638583623254906
12024.0,27119.0,0.12981909837945893
12034.0,27125.0,0.09502515374129013
12044.0,27112.0,0.060376352607166346
12054.0,27102.0,0.02670080960632626
12064.0,27091.0,-0.00525121074838825
12074.0,27078.0,-0.034810823156676274
12085.0,27075.0,-0.06139284844307105
12095.0,27064.0,-0.08449800081232088
12105.0,27041.0,-0.10371580989160357
12114.0,27035.0,-0.11872873643447285
12124.0,27023.0,-0.129317154603981
12134.0,27012.0,-0.1353641326510859
12144.0,27029.0,-0.1368586584247822
12154.0,27047.0,-0.13389622462806272
12164.0,27055.0,-0.1266765820206443
12174.0,27064.0,-0.115499596571081
12184.0,27067.0,-0.10076057887210593
12195.0,27074.0,-0.08294588112076191
12205.0,27088.0,-0.06262861666534435
12214.0,27102.0,-0.04046374538406639
12224.0,27098.0,-0.017181648143565098
12234.0,27098.0,0.006420739152470016
12244.0,27111.0,0.02949261010951226
12254.0,27099.0,0.05114774421788021
12264.0,27132.0,0.07049075833626561
12274.0,27161.0,0.08665246520566346
12284.0,27187.0,0.09883403195057094
12294.0,27225.0,0.10635733342094511
12305.0,27266.0,0.10871682174139324
12314.0,27296.0,0.1056271474448134
12324.0,27328.0,0.09706091297553979
12334.0,27323.0,0.08327221186552168
12344.0,27314.0,0.06480325588968294
12354.0,27286.0,0.04247250763338222
12364.0,27241.0,0.017343204572267092
12374.0,27177.0,-0.0093283677045261
12384.0,27096.0,-0.036163908955690424
12394.0,27047.0,-0.06174895095539096
12405.0,27033.0,-0.0847247253031677
12415.0,27032.0,-0.1038753096242899
12424.0,27033.0,-0.11820121343845642
12434.0,27034.0,-0.1269744871658929
12444.0,27044.0,-0.12977373659867808
12454.0,27048.0,-0.12649923660646478
12464.0,27069.0,-0.11736924301657443
12474.0,27079.0,-0.10289924217931504
12484.0,27098.0,-0.08386645702183292
12495.0,27115.0,-0.06126236686044482
12504.0,27131.0,-0.03623620695008251
12514.0,27131.0,-0.01003238932926315
12524.0,27165.0,0.01607549765783758
12534.0,27181.0,0.04085178424091434
12544.0,27215.0,0.06316441345924279
12554.0,27227.0,0.08204600822367515
12565.0,27261.0,0.09674648361403827
12574.0,27281.0,0.10677350501352571
12584.0,27285.0,0.11191795870398753
12594.0,27288.0,0.11226284831195829
12604.0,27287.0,0.1081752004063656
12614.0,27270.0,0.10028131591970707
12624.0,27245.0,0.08942602120049532
12635.0,27208.0,0.07661679449051792
12644.0,27185.0,0.06295435981404966
12654.0,27130.0,0.04955296992570655
12664.0,27090.0,0.03745587245012943
12674.0,27065.0,0.027553537937531375
12684.0,27058.0,0.020513177300380783
12694.0,27060.0,0.016727196908128655
12704.0,27082.0,0.016285686319280478
12715.0,27096.0,0.01897475162229419
12724.0,27115.0,0.02429943624288744
12734.0,27131.0,0.03152770738136197
12744.0,27139.0,0.03975075501694824
12754.0,27172.0,0.04795441240233437
12764.0,27184.0,0.055096322322466765
12774.0,27184.0,0.06018321597183717
12785.0,27197.0,0.06234269346008376
12794.0,27198.0,0.0608846171382249
12804.0,27198.0,0.055348262350990336
12814.0,27180.0,0.045532248089511666
12824.0,27180.0,0.03150523255085351
12834.0,27157.0,0.013596571553975497
12844.0,27119.0,-0.0076326465983560954
12854.0,27090.0,-0.03143645430581507
12865.0,27048.0,-0.056945326448547134
12874.0,27008.0,-0.0832368924086973
12884.0,26964.0,-0.10940984213238539
12894.0,26940.0,-0.13465427313912806
12904.0,26915.0,-0.15831179224288774
12914.0,26897.0,-0.1799196292819936
12924.0,26895.0,-0.19923469741216673
12934.0,26917.0,-0.21623559980965273
12944.0,26912.0,-0.23110301770298242
12954.0,26925.0,-0.2441814729018409
12964.0,26926.0,-0.25592728321198355
12974.0,26934.0,-0.2668482102612029
12984.0,26926.0,-0.2774403016187586
12994.0,26917.0,-0.2881270874266061
13004.0,26927.0,-0.29920555475797644
13014.0,26935.0,-0.3108025206888001
13024.0,26933.0,-0.3228447530006659
13034.0,26921.0,-0.33504625168770863
13044.0,26890.0,-0.34691550234677193
13054.0,26863.0,-0.35778367312744663
13064.0,26830.0,-0.3668521106047704
13074.0,26795.0,-0.3732549967111331
13084.0,26768.0,-0.3761312224439414
13094.0,26744.0,-0.3746984881176793
13104.0,26739.0,-0.3683223560628513
13114.0,26748.0,-0.3565736033520229
13124.0,26766.0,-0.33926882222117016
13134.0,26772.0,-0.31649148736073707
13144.0,26796.0,-0.28859288149234463
13154.0,26820.0,-0.25617372738488614
13164.0,26857.0,-0.22004833936405996
13174.0,26885.0,-0.18119414619145183
13184.0,26909.0,-0.14069051415234754
13194.0,26943.0,-0.09965140753417881
13204.0,26972.0,-0.05915643478148254
13214.0,26989.0,-0.020184621943833816
13224.0,27027.0,0.016444978604183258
13234.0,27070.0,0.050122012497264085
13244.0,27085.0,0.08047908696921591
13254.0,27087.0,0.10740770402124332
13264.0,27077.0,0.13105286238413413
13274.0,27044.0,0.15178574687212537
13284.0,27029.0,0.17015716395720265
13294.0,27017.0,0.1868372451656023
13304.0,27005.0,0.20254850257173565
13314.0,27014.0,0.2179993007171973
13324.0,27012.0,0.23382368837780132
13334.0,27032.0,0.25053194572333304
13344.0,27048.0,0.2684744779119056
13354.0,27043.0,0.28782005050343584
13364.0,27066.0,0.3085481788995281
13374.0,27082.0,0.3304549360168
13384.0,27110.0,0.3531710111786656
13394.0,27134.0,0.3761899460234017
13404.0,27141.0,0.39890337880155025
13414.0,27159.0,0.4206395930583166
13424.0,27176.0,0.44070192590354307
13434.0,27176.0,0.45840418349388706
13444.0,27172.0,0.4731007624491408
13454.0,27150.0,0.4842100037120581
13464.0,27154.0,0.491230675596666
13474.0,27149.0,0.49375278841142234
13483.0,27139.0,0.49146434041672366
13494.0,27132.0,0.48415514404720467
13504.0,27110.0,0.47171839297387824
13514.0,27108.0,0.45415051937095563
13524.0,27073.0,0.431549908082621
13533.0,27073.0,0.404114943313091
13544.0,27055.0,0.3721416258882289
13554.0,27032.0,0.3360205234890091
13564.0,27022.0,0.2962322009845689
13574.0,26987.0,0.253339908937274
13584.0,26961.0,0.2079783510628001
13594.0,26929.0,0.1608377316424546
13604.0,26873.0,0.11264295667230803
13614.0,26839.0,0.06412878678152856
13624.0,26795.0,0.016012792579703946
13634.0,26750.0,-0.031031238775749825
13643.0,26731.0,-0.07639660750119157
13654.0,26702.0,-0.11956128642207939
13664.0,26673.0,-0.16009826147209902
13674.0,26660.0,-0.19767819296806982
13684.0,26642.0,-0.2320648093196967
13694.0,26623.0,-0.26310407286449994
13703.0,26613.0,-0.2907087064520419
13714.0,26596.0,-0.3148399727986038
13724.0,26585.0,-0.3354886246367497
13734.0,26602.0,-0.35265691533549437
13744.0,26602.0,-0.3663437977722874
13754.0,26587.0,-0.3765360275716055
13764.0,26555.0,-0.38320801360376355
13773.0,26516.0,-0.3863318250113505
13784.0,26488.0,-0.38589594206444255
13794.0,26463.0,-0.38192854692672445
13804.0,26465.0,-0.37451968124366786
13814.0,26476.0,-0.3638368844192092
13824.0,26487.0,-0.3501306772652682
13834.0,26506.0,-0.33372865632324217
13844.0,26517.0,-0.31501903730419856
13854.0,26547.0,-0.2944257644577694
13863.0,26597.0,-0.27237812277081735
13874.0,26607.0,-0.24927876918112776
13884.0,26613.0,-0.22547505357788297
13894.0,26621.0,-0.2012382788652694
13904.0,26619.0,-0.1767537562915589
13914.0,26608.0,-0.15212225616596015
13924.0,26613.0,-0.12737166045745685
13934.0,26617.0,-0.102476364150081
13944.0,26599.0,-0.07738131833295965
13954.0,26609.0,-0.052027439145289275
13964.0,26633.0,-0.026375068905457946
13974.0,26641.0,-0.00042260146094156914
13984.0,26660.0,0.025781348123829085
13994.0,26681.0,0.05213243468301254
14004.0,26690.0,0.07847110485236032
14014.0,26717.0,0.10458811024750331
14024.0,26734.0,0.13023368029719024
14034.0,26738.0,0.15512878362431012
14043.0,26753.0,0.17897686364573798
14054.0,26765.0,0.20147478359776969
14064.0,26774.0,0.2223221998053689
14074.0,26776.0,0.24122881445910654
14084.0,26778.0,0.2579191275389662
14094.0,26780.0,0.2721347168796394
14103.0,26776.0,0.28363457227468886
14114.0,26778.0,0.2921943263365307
14124.0,26777.0,0.29760531432893145
14134.0,26765.0,0.2996743097325735
14144.0,26763.0,0.2982246503126027
14154.0,26752.0,0.2930994297037882
14163.0,26745.0,0.28416738276662923
14174.0,26733.0,0.2713318711013297
14184.0,26721.0,0.2545430421615474
14194.0,26724.0,0.23381286981271035
14204.0,26711.0,0.2092322455555586
14214.0,26694.0,0.180988548744621
14223.0,26700.0,0.14938153992239808
14234.0,26679.0,0.11483517815677438
14244.0,26657.0,0.07790283544824166
14254.0,26630.0,0.039263538979770134
14264.0,26597.0,-0.00029225573649901233
14274.0,26554.0,-0.03988747939890441
14284.0,26525.0,-0.07859257055567612
14293.0,26499.0,-0.11546647917728255
14304.0,26458.0,-0.14960152503051888
14314.0,26434.0,-0.18016899967436037
14324.0,26410.0,-0.20646238908952552
14334.0,26390.0,-0.22793508900638096
14344.0,26366.0,-0.24422977207567068
14354.0,26366.0,-0.25519706497659417
14363.0,26368.0,-0.26090179657582213
14374.0,26375.0,-0.26161607208518184
14384.0,26386.0,-0.25779983660465916
14394.0,26397.0,-0.25007089418667555
14404.0,26407.0,-0.23916715453029072
14414.0,26413.0,-0.2259041847017895
14423.0,26433.0,-0.21113105763490492
14433.0,26438.0,-0.19568722687088744
14444.0,26442.0,-0.18036291589747458
14454.0,26446.0,-0.1658651399839587
14464.0,26456.0,-0.15279080674517592
14474.0,26448.0,-0.1416076416042375
14484.0,26450.0,-0.13264318651555546
14493.0,26448.0,-0.12608163917819235
14503.0,26436.0,-0.12196776657198241
14514.0,26436.0,-0.1202167036794563
14524.0,26433.0,-0.12062818298244463
14534.0,26426.0,-0.12290369793568866
14544.0,26420.0,-0.12666531420625365
14554.0,26411.0,-0.1314750520232971
14564.0,26405.0,-0.13685379206275747
14573.0,26404.0,-0.14229866639453156
14584.0,26396.0,-0.14729808525473972
14594.0,26412.0,-0.15134394987530533
14604.0,26412.0,-0.15394118924572617
14614.0,26422.0,-0.1546154966007943
14624.0,26415.0,-0.15292074078287277
14634.0,26418.0,-0.14844755386337538
14643.0,26421.0,-0.1408340238042147
14653.0,26422.0,-0.12977870548122972
14664.0,26415.0,-0.1150556363284252
14674.0,26425.0,-0.09653056731918219
14684.0,26430.0,-0.07417708816689954
14694.0,26428.0,-0.04809099312457219
14704.0,26439.0,-0.018501149403334256
14713.0,26462.0,0.014224928760422905
14723.0,26477.0,0.04958242767096268
14734.0,26515.0,0.08693839061820288
14744.0,26538.0,0.12554846909173192
14754.0,26563.0,0.16458003244026917
14764.0,26591.0,0.2031397540014226
14774.0,26616.0,0.2403036199344216
14783.0,26645.0,0.27514735642331933
14794.0,26648.0,0.30677529806880993
14804.0,26660.0,0.3343459625731131
14814.0,26661.0,0.35709336106898504
14824.0,26651.0,0.37434414441093317
14834.0,26656.0,0.3855316131475654
14843.0,26655.0,0.3902081465140225
14853.0,26642.0,0.3880575686593816
14864.0,26649.0,0.37890844812344904
14874.0,26647.0,0.36274863377899924
14884.0,26652.0,0.3397404521938412
14894.0,26651.0,0.31023481790283763
14903.0,26640.0,0.2747813996423795
14913.0,26625.0,0.23413143982772439
14924.0,26577.0,0.1892301074210661
14934.0,26539.0,0.14119649046372995
14944.0,26503.0,0.09129129052133168
14954.0,26456.0,0.040874176527129956
14964.0,26421.0,-0.008646143060041555
14973.0,26398.0,-0.05586572600703568
14983.0,26372.0,-0.099439845928046
14993.0,26333.0,-0.13813546327945223
15004.0,26317.0,-0.17087967177986196
15014.0,26312.0,-0.1968022051408608
15024.0,26294.0,-0.21527026981659753
15034.0,26280.0,-0.2259146044978602
15044.0,26281.0,-0.22864617073463672
15054.0,26274.0,-0.2236628586679046
15063.0,26283.0,-0.21144553399951663
15073.0,26288.0,-0.1927430041157716
15083.0,26289.0,-0.1685458446046362
15094.0,26304.0,-0.1400492630500842
15104.0,26327.0,-0.10860530723195436
15114.0,26355.0,-0.07566512677227787
15124.0,26381.0,-0.04271297148029296
15134.0,26437.0,-0.011194913650861272
15143.0,26468.0,0.01755338259178252
15153.0,26480.0,0.04237431923656592
15163.0,26487.0,0.062345562232501865
15174.0,26496.0,0.07682206023772949
15184.0,26492.0,0.08546023511389518
15194.0,26482.0,0.08822347933813997
15204.0,26465.0,0.08536939539803458
15213.0,26448.0,0.07742044924801343
15223.0,26433.0,0.0651208753650603
15233.0,26396.0,0.04938346993910316
15244.0,26388.0,0.031230360015139104
15254.0,26383.0,0.011732018399220221
15264.0,26351.0,-0.008051590457735017
15274.0,26348.0,-0.027124754191500976
15284.0,26325.0,-0.04460237563430722
15293.0,26328.0,-0.059747002381948695
15303.0,26318.0,-0.07199503998429403
15313.0,26311.0,-0.08097146197168069
15324.0,26316.0,-0.08649309486332837
15334.0,26333.0,-0.08856114692958206
15344.0,26337.0,-0.08734438344983457
15354.0,26331.0,-0.08315526134265794
15364.0,26339.0,-0.07642173076261811
15373.0,26346.0,-0.06765695114997611
15383.0,26337.0,-0.05742850646375058
15393.0,26341.0,-0.046328301596305514
15403.0,26348.0,-0.03494391714327908
15414.0,26339.0,-0.023831774762545745
15424.0,26345.0,-0.013492274504362014
15434.0,26353.0,-0.004347002163478195
15444.0,26364.0,0.003281835871607072
15454.0,26376.0,0.009189133781206525
15464.0,26387.0,0.013300412162580103
15473.0,26390.0,0.015679248563739864
15483.0,26400.0,0.016526606152215823
15493.0,26382.0,0.016170406666432064
15503.0,26376.0,0.015044506865889595
15514.0,26355.0,0.013657510036720263
15524.0,26351.0,0.01255329285375183
15534.0,26332.0,0.012266220397161088
15544.0,26304.0,0.013274584322187286
15554.0,26294.0,0.015956219271352674
15564.0,26284.0,0.02055072373358829
15574.0,26277.0,0.027132747048005394
15583.0,26296.0,0.0355999804785179
15593.0,26305.0,0.04567795712536803
15603.0,26323.0,0.05694183462806344
15613.0,26359.0,0.06885336037310634
15623.0,26403.0,0.08080942035241619
15634.0,26433.0,0.09219676701265132
15644.0,26432.0,0.10244595389743845
15654.0,26426.0,0.11107733090141297
15664.0,26415.0,0.11773384774881548
15674.0,26393.0,0.12219846374594484
15683.0,26384.0,0.12439670777535046
15693.0,26369.0,0.12438670312240155
15704.0,26368.0,0.12233975868285742
15714.0,26366.0,0.11851456582768051
15724.0,26352.0,0.11322743064583538
15734.0,26341.0,0.1068203556207445
15743.0,26340.0,0.09962860724652953
15753.0,26319.0,0.09194953009705749
15763.0,26299.0,0.08401443802834385
15774.0,26290.0,0.07596554714098501
15784.0,26284.0,0.06784015711504732
15794.0,26265.0,0.059564131389091134
15804.0,26265.0,0.05095603031729287
15814.0,26256.0,0.041742471545709994
15823.0,26270.0,0.031584519554888286
15833.0,26282.0,0.020113787045993824
15843.0,26271.0,0.006975450675162512
15853.0,26292.0,-0.008125879972416754
15863.0,26292.0,-0.025382067683517463
15874.0,26268.0,-0.044843798699933726
15884.0,26252.0,-0.06639360199719022
15894.0,26217.0,-0.08973236788767928
15904.0,26199.0,-0.11438012658710646
15914.0,26175.0,-0.13969009859955422
15923.0,26162.0,-0.16487415528338045
15933.0,26134.0,-0.18903768297032184
15943.0,26121.0,-0.2112219419234878
15953.0,26107.0,-0.2304519641508185
15963.0,26088.0,-0.24578790175665477
15973.0,26066.0,-0.25637764686002573
15984.0,26041.0,-0.26150824392479105
15994.0,26029.0,-0.26065293391095656
4.0,26032.0,-0.2535100431407061
16014.0,26044.0,-0.2400300745272113
16024.0,26045.0,-0.22042849089447647
16033.0,26065.0,-0.19518318149566943
16043.0,26082.0,-0.16501672950159071
16053.0,26089.0,-0.13086429221366408
16063.0,26119.0,-0.09382840683502237
16073.0,26154.0,-0.055122451630090094
16084.0,26206.0,-0.01600522653069146
16094.0,26259.0,0.022289390959530257
16104.0,26293.0,0.05862187115729155
16114.0,26316.0,0.09200846574755887
16124.0,26326.0,0.12166789579559312
16133.0,26325.0,0.14704843124160852
16143.0,26300.0,0.16783324007285502
16153.0,26274.0,0.18392486578253628
16163.0,26260.0,0.19541258937568726
16173.0,26234.0,0.20252864185616806
16183.0,26224.0,0.20560012323297286
16194.0,26224.0,0.20500310993133372
16204.0,26213.0,0.2011242120803597
16214.0,26228.0,0.19433308227037369
16224.0,26239.0,0.18496738608194738
16234.0,26251.0,0.17332970257451005
16243.0,26257.0,0.15969388502644852
16253.0,26248.0,0.144317083305618
16263.0,26227.0,0.12745341432502375
16273.0,26215.0,0.1093661656950573
16283.0,26206.0,0.09033683519976704
16293.0,26203.0,0.07067031332274744
16304.0,26177.0,0.05069566701508851
16314.0,26141.0,0.030761920814988693
16324.0,26116.0,0.011228936510657223
16334.0,26113.0,-0.007545118291782432
16344.0,26115.0,-0.025217460023552612
16353.0,26105.0,-0.0414740446792298
16363.0,26078.0,-0.05604254128099587
16373.0,26039.0,-0.06870533228544126
16383.0,26038.0,-0.07931184146696622
16393.0,26034.0,-0.08778804056603381
16403.0,26019.0,-0.09414080577040854
16414.0,26011.0,-0.09845584461525321
16424.0,26006.0,-0.10088882924268888
16434.0,26037.0,-0.10164973545116711
16444.0,26055.0,-0.10098116356430453
16453.0,26076.0,-0.09913313626914357
16463.0,26083.0,-0.09633864169327348
16473.0,26064.0,-0.09279471836662916
16483.0,26060.0,-0.08865271352957484
16493.0,26038.0,-0.08401907054549798
16503.0,26029.0,-0.07896569015042702
16514.0,26013.0,-0.07354733082971583
16524.0,25988.0,-0.06782267915850274
16534.0,25988.0,-0.06187527856326117
16544.0,25984.0,-0.05583038685787987
16554.0,26001.0,-0.049864406734071054
16563.0,26011.0,-0.044204999419237674
16573.0,26012.0,-0.039121858585413255
16583.0,26007.0,-0.03490952310421868
16593.0,26027.0,-0.03186406053014862
16603.0,26035.0,-0.030255429052157168
16613.0,26042.0,-0.030297687467287882
16624.0,26034.0,-0.03211990051959589
16634.0,26037.0,-0.03574072933292878
16644.0,26049.0,-0.04104914135005666
16654.0,26054.0,-0.04779320652573035
16664.0,26043.0,-0.05557901447294502
16673.0,26029.0,-0.06388170631836675
16683.0,26003.0,-0.07206963765713598
16693.0,25981.0,-0.07944087123412495
16703.0,25957.0,-0.0852692909466223
16713.0,25939.0,-0.08885622347636543
16723.0,25926.0,-0.08958276222760177
16734.0,25917.0,-0.08695797878903565
16744.0,25896.0,-0.08065866733431329
16754.0,25921.0,-0.07055690929166748
16764.0,25929.0,-0.05673263394324376
16773.0,25955.0,-0.0394698953033148
16783.0,25973.0,-0.019237621212493713
16793.0,25996.0,0.003342711513799282
16803.0,26029.0,0.027539051285300292
16813.0,26047.0,0.05255642909257805
16823.0,26072.0,0.07758598619943052
16833.0,26083.0,0.10185106940255044
16844.0,26072.0,0.12464670987579113
16854.0,26081.0,0.1453701088953327
16864.0,26088.0,0.1635414342689537
16874.0,26086.0,0.1788154801748032
16883.0,26082.0,0.1909851378592646
16893.0,26101.0,0.19997766884995977
16903.0,26104.0,0.20584476218688375
16913.0,26108.0,0.20874697524039262
16923.0,26084.0,0.20893266158487878
16933.0,26076.0,0.20671173832686288
16943.0,26052.0,0.202425780670576
16954.0,26048.0,0.19641713354036824
64.0,26039.0,0.18900020787061397
16974.0,26031.0,0.18043774498576898
16984.0,26028.0,0.1709239582398596
16993.0,26022.0,0.16057555507391738
17003.0,26012.0,0.14943090966092676
17013.0,26011.0,0.13745710822890028
17023.0,26005.0,0.12456418629043234
17033.0,25996.0,0.11062549533899456
17043.0,25989.0,0.09550276592261435
17053.0,25994.0,0.07907419150974855
17064.0,25988.0,0.06126360356209677
17074.0,25992.0,0.04206833277170163
17084.0,25993.0,0.021582829866820284
17094.0,25983.0,1.4850709596120099e-05
17103.0,25962.0,-0.022308820612663382
17113.0,25914.0,-0.04494920555509749
17123.0,25882.0,-0.06737465917176882
17133.0,25866.0,-0.08899075175220102
17143.0,25849.0,-0.1091764716393392
17153.0,25825.0,-0.12732264070012592
17163.0,25822.0,-0.14286931389447485
17174.0,25806.0,-0.15533970887864587
17184.0,25804.0,-0.16436874198963844
17194.0,25797.0,-0.16972478543184988
17203.0,25806.0,-0.17132378882603
17213.0,25800.0,-0.16923542770925276
17223.0,25796.0,-0.16368142674008188
17233.0,25800.0,-0.155026389129957
17243.0,25810.0,-0.14376133268615418
17253.0,25827.0,-0.13048020458211476
17263.0,25840.0,-0.11585027936021111
17273.0,25854.0,-0.10057822792775237
17284.0,25858.0,-0.08537422172011187
17294.0,25872.0,-0.0709164537872487
17304.0,25881.0,-0.05781810440895145
17313.0,25894.0,-0.04659845801653895
17323.0,25886.0,-0.037659746868866036
17333.0,25890.0,-0.03127104940387738
17343.0,25886.0,-0.027559935848739146
17353.0,25887.0,-0.026511799556630074
17363.0,25890.0,-0.02797639134109494
17373.0,25878.0,-0.031681029669199494
17383.0,25863.0,-0.037249927074820006
17394.0,25847.0,-0.04422864338676748
17404.0,25840.0,-0.052111875878770246
17414.0,25838.0,-0.0603722187450852
17423.0,25829.0,-0.06848767276333817
17433.0,25824.0,-0.07596635349498301
17443.0,25813.0,-0.08236742076472721
17453.0,25817.0,-0.08731746444618277
17463.0,25815.0,-0.0905217059425528
17473.0,25818.0,-0.0917697370374204
17483.0,25823.0,-0.09093606136268491
17493.0,25821.0,-0.0879761526718858
17504.0,25818.0,-0.08291892291701518
17514.0,25825.0,-0.0758563579123868
17524.0,25840.0,-0.06693083186197403
17533.0,25857.0,-0.05632072676636921
17543.0,25863.0,-0.044225608120705466
17553.0,25863.0,-0.03085276884333047
17563.0,25885.0,-0.01640681727892219
17573.0,25876.0,-0.001083321200010399
17583.0,25889.0,0.014933095812991314
17593.0,25891.0,0.03146629448686942
17603.0,25888.0,0.04834240452458505
17614.0,25894.0,0.06538095660413608
17624.0,25906.0,0.08238484684771023
17634.0,25907.0,0.09913072703401718
17643.0,25919.0,0.1153611383630681
17653.0,25923.0,0.13077932432222483
17663.0,25919.0,0.1450474518724477
17673.0,25929.0,0.15778895274371588
17683.0,25934.0,0.16859574264883775
17693.0,25942.0,0.1770408891722738
17703.0,25948.0,0.18269672442750237
17713.0,25944.0,0.18515773345237752
17724.0,25963.0,0.18406710534283113
17734.0,25974.0,0.1791454547416095
17743.0,25973.0,0.17021955288771262
17753.0,25976.0,0.15724814573349863
17763.0,25962.0,0.1403417466604963
17773.0,25946.0,0.11977388337489767
17783.0,25941.0,0.09598228174054282
17793.0,25921.0,0.06955941990877246
17803.0,25897.0,0.04123251054469382
17813.0,25859.0,0.01183352047746222
17823.0,25829.0,-0.017739177593946595
17834.0,25809.0,-0.046564639347821624
17844.0,25783.0,-0.07374496044635535
17853.0,25765.0,-0.0984490069090679
17863.0,25760.0,-0.11995120343007433
17873.0,25740.0,-0.13766306381865961
17883.0,25738.0,-0.1511559264262672
17893.0,25746.0,-0.16017406646076462
17903.0,25748.0,-0.1646380682115457
17913.0,25759.0,-0.16463925056606094
17923.0,25758.0,-0.16042678678669456
17933.0,25763.0,-0.15238946976390363
17944.0,25765.0,-0.14103380188471867
17954.0,25779.0,-0.126959575134275
17963.0,25782.0,-0.11083374881202229
17973.0,25787.0,-0.09336334365205388
17983.0,25790.0,-0.07526797428232444
17993.0,25817.0,-0.05725238460632505
18003.0,25814.0,-0.03997928395206454
18013.0,25840.0,-0.024043146234503772
18023.0,25863.0,-0.009946142250235934
18033.0,25854.0,0.0019221933666106277
18043.0,25865.0,0.011299761269384662
18054.0,25870.0,0.018059785492246693
18064.0,25874.0,0.022211239450142882
18073.0,25871.0,0.023891760459520232
18083.0,25857.0,0.023353227911030554
18093.0,25835.0,0.020940755655970537
18103.0,25833.0,0.01706690221420725
18113.0,25827.0,0.012183845069997092
18123.0,25820.0,0.006756394578145656
18133.0,25825.0,0.0012380473155855218
18143.0,25815.0,-0.003948581318437728
18153.0,25826.0,-0.008426282198369382
18164.0,25828.0,-0.011872628518643897
18174.0,25830.0,-0.014024656687706864
18183.0,25833.0,-0.014679802806683635
18193.0,25834.0,-0.01369424954033389
18203.0,25838.0,-0.010979725140398952
18213.0,25841.0,-0.0064995919021823235
18223.0,25842.0,-0.0002648927408262022
18233.0,25848.0,0.007669147871117857
18243.0,25846.0,0.017205892138898372
18253.0,25857.0,0.02820929331837477
18263.0,25867.0,0.0405052713579424
18274.0,25868.0,0.053882571814332855
18283.0,25875.0,0.0680931078106941
18293.0,25875.0,0.08285189008929968
18303.0,25873.0,0.0978370424648389
18313.0,25886.0,0.1126908363758737
18323.0,25899.0,0.12702284771764788
18333.0,25905.0,0.14041599017220915
18343.0,25917.0,0.15243546321082455
18353.0,25922.0,0.16264009367435472
18363.0,25917.0,0.1705953954872241
18373.0,25919.0,0.17588783645510314
18384.0,25919.0,0.17814015503652653
18393.0,25923.0,0.17702780682523697
18403.0,25917.0,0.17229644958797827
18413.0,25921.0,0.16377994831091405
18423.0,25921.0,0.15141799125272445
18433.0,25910.0,0.13527207342429898
18443.0,25931.0,0.11553827238023459
18453.0,25920.0,0.09255487149695546
18463.0,25898.0,0.06680248929953611
18473.0,25862.0,0.0388945361305815
18483.0,25831.0,0.009557238896354394
18494.0,25808.0,-0.02039936523407458
18503.0,25779.0,-0.050116498367696674
18513.0,25775.0,-0.07872444321976041
18523.0,25742.0,-0.1053802323117782
18533.0,25739.0,-0.1293031101155572
18543.0,25721.0,-0.1498062002433865
18553.0,25720.0,-0.16632316883490078
18563.0,25720.0,-0.17842911403305353
18573.0,25710.0,-0.18585548880538452
18583.0,25704.0,-0.18849929543845556
18593.0,25700.0,-0.18642675415162974
18604.0,25705.0,-0.17987124534201823
18613.0,25713.0,-0.16922508817806411
18623.0,25724.0,-0.1550249793277835
18633.0,25709.0,-0.13793140640047127
18643.0,25740.0,-0.11870253464179906
18653.0,25751.0,-0.09816294158224527
18663.0,25775.0,-0.077167843969038
18673.0,25786.0,-0.05656434414715117
18683.0,25809.0,-0.037151998009936515
18693.0,25812.0,-0.019645197862848712
18703.0,25830.0,-0.004639665120614837
18714.0,25846.0,0.007414980307513796
18723.0,25851.0,0.01623484926830653
18733.0,25851.0,0.02171200370159706
18743.0,25838.0,0.023914056799787652
18753.0,25831.0,0.023072942939949454
18763.0,25819.0,0.019563943407078805
18773.0,25815.0,0.013877043228149576
18783.0,25801.0,0.006583083502137887
18793.0,25771.0,-0.0017028017888763
18803.0,25778.0,-0.010357834407537748
18813.0,25762.0,-0.018785458324804324
18824.0,25773.0,-0.02644384463173297
18833.0,25769.0,-0.03286746971631089
18843.0,25766.0,-0.037681369492404894
18853.0,25765.0,-0.04060842495892673
18863.0,25770.0,-0.04147027230128603
18873.0,25784.0,-0.040182513530581325
18883.0,25787.0,-0.036745272897365656
18893.0,25782.0,-0.031230680894710466
18903.0,25798.0,-0.023768998015447365
18913.0,25799.0,-0.014534711954028886
18923.0,25804.0,-0.00373357980046968
18933.0,25809.0,0.00840856289859719
18943.0,25812.0,0.021654647639089995
18953.0,25824.0,0.035762666109921605
18963.0,25821.0,0.050489465480448054
18973.0,25834.0,0.06559224017079869
18983.0,25838.0,0.08082805926945494
18993.0,25852.0,0.09595186271863625
19003.0,25855.0,0.1107132831589638
19013.0,25842.0,0.1248525760504016
19023.0,25857.0,0.1380962312114057
19033.0,25858.0,0.15015340021534376
19043.0,25861.0,0.1607144666543953
19053.0,25869.0,0.16945269290900808
19063.0,25864.0,0.17602938482395492
19073.0,25864.0,0.18010275697338252
19083.0,25870.0,0.18134058280809534
19093.0,25873.0,0.17943655218446666
19103.0,25867.0,0.17412981960400264
19113.0,25870.0,0.16522666888296794
19123.0,25867.0,0.15262288080767905
19133.0,25872.0,0.1363251837410863
19143.0,25870.0,0.11646981613199067
19153.0,25873.0,0.09333577259361138
19163.0,25851.0,0.0673500246444929
19173.0,25816.0,0.039082304481816765
19183.0,25784.0,0.009228305011845779
19193.0,25754.0,-0.021417823965103857
19203.0,25727.0,-0.051998991091607716
19213.0,25705.0,-0.08163518899802186
19223.0,25699.0,-0.10946466965449705
19233.0,25667.0,-0.13468358585205192
19243.0,25653.0,-0.15658215955255392
19253.0,25649.0,-0.1745757970066578
19263.0,25634.0,-0.18822967989035722
19273.0,25634.0,-0.197275734924043
19283.0,25620.0,-0.20162144145075125
19293.0,25639.0,-0.20135029614059058
19303.0,25635.0,-0.19671406363267668
19313.0,25646.0,-0.18811748367562633
19323.0,25646.0,-0.17609663640681822
19333.0,25669.0,-0.16129233661625175
19343.0,25666.0,-0.14441990638014673
19353.0,25679.0,-0.12623672378712172
19363.0,25694.0,-0.10750891355961707
19373.0,25707.0,-0.08897841119418261
19383.0,25718.0,-0.07133169097592117
19393.0,25724.0,-0.055171631994052756
19403.0,25734.0,-0.04099392515556477
19413.0,25750.0,-0.029169108280063926
19423.0,25747.0,-0.019931101944734766
19433.0,25751.0,-0.01337303926184202
19443.0,25741.0,-0.009450865321129051
19453.0,25739.0,-0.007994472204273226
19463.0,25727.0,-0.008725338654864356
19473.0,25716.0,-0.011279045731804528
19483.0,25716.0,-0.015230671779526493
19493.0,25713.0,-0.020120990780969853
19503.0,25695.0,-0.025481701872368128
19513.0,25700.0,-0.030858344454680223
19523.0,25694.0,-0.0358297725242319
19533.0,25697.0,-0.04002328845828937
19543.0,25693.0,-0.04312504211161911
19553.0,25695.0,-0.04488583294000888
19563.0,25693.0,-0.04512273492243262
19573.0,25700.0,-0.04371707654270743
19583.0,25712.0,-0.04060945894793211
19593.0,25708.0,-0.03579280383545731
19603.0,25706.0,-0.02930468892240324
19613.0,25707.0,-0.02122002383524409
19623.0,25714.0,-0.01164447330441704
19633.0,25721.0,-0.000708561818819804
19643.0,25729.0,0.011437554630534428
19653.0,25728.0,0.024628393068814293
19663.0,25735.0,0.03868622706206976
19673.0,25746.0,0.053422914150826874
19683.0,25750.0,0.06864067040311765
19693.0,25758.0,0.0841319802346692
19703.0,25766.0,0.09967874699119063
19713.0,25778.0,0.11505081047208027
19723.0,25772.0,0.13000398162668597
19733.0,25782.0,0.1442778092488793
19743.0,25783.0,0.15759355320745808
19753.0,25788.0,0.16965311293162177
19763.0,25783.0,0.18013969785838158
19773.0,25783.0,0.18872097640712504
19783.0,25780.0,0.19505550700098742
19793.0,25795.0,0.19880325838335217
19803.0,25792.0,0.1996406159256989
19813.0,25803.0,0.197279424851472
19823.0,25798.0,0.19148875581451255
19833.0,25802.0,0.18211756355709047
19843.0,25803.0,0.16911621404528396
19853.0,25801.0,0.15255474867849436
19863.0,25791.0,0.13263565129879662
19873.0,25773.0,0.10969899382173619
19883.0,25740.0,0.08421846676108218
19893.0,25718.0,0.05678800477718963
19903.0,25700.0,0.02810010131023526
19912.0,25676.0,-0.0010822035001915261
19923.0,25650.0,-0.029957545648535436
19933.0,25631.0,-0.05772070029769591
19943.0,25611.0,-0.08359729829323406
19953.0,25603.0,-0.10687681803137968
19963.0,25586.0,-0.1269421938537344
19973.0,25581.0,-0.14329490917408744
19983.0,25571.0,-0.1555749019886936
19993.0,25557.0,-0.1635748685204416
20003.0,25556.0,-0.16724859080869928
20013.0,25550.0,-0.16671280661312923
20022.0,25558.0,-0.16224213456360032
20033.0,25566.0,-0.15425688913608646
20043.0,25554.0,-0.14330415940378857
20053.0,25581.0,-0.13003291167099434
20063.0,25585.0,-0.11516400372902952
20073.0,25606.0,-0.09945627686468457
20083.0,25610.0,-0.08367047783660861
20093.0,25623.0,-0.06853316780170464
20103.0,25632.0,-0.05470269849389351
20113.0,25644.0,-0.042739047629624174
20123.0,25648.0,-0.03307910674156953
20132.0,25658.0,-0.026018889712280148
20143.0,25650.0,-0.021703900275222506
20153.0,25636.0,-0.020128401878516566
20163.0,25639.0,-0.021143480080288206
20173.0,25624.0,-0.024472817474364812
20183.0,25615.0,-0.029734508963311482
20193.0,25607.0,-0.03646707366963309
20203.0,25595.0,-0.044157742268384224
20213.0,25585.0,-0.05227106866784082
20223.0,25584.0,-0.060276028838146964
20233.0,25584.0,-0.06767006722965546
20242.0,25578.0,-0.07399911034728687
20253.0,25578.0,-0.07887323303342406
20263.0,25566.0,-0.0819780523508022
20273.0,25576.0,-0.08308193430217452
20283.0,25575.0,-0.08203904131682947
20293.0,25574.0,-0.07878843008800021
20303.0,25570.0,-0.07334968382332901
20313.0,25574.0,-0.06581553786956079
20323.0,25580.0,-0.05634168742686804
20333.0,25588.0,-0.04513390425409613
20343.0,25605.0,-0.03243291286418421
20352.0,25622.0,-0.01849801785227143
20362.0,25627.0,-0.0035910380817946713
20373.0,25629.0,0.012037615126525288
20383.0,25633.0,0.02815924699355663
20393.0,25645.0,0.0445729894987698
20403.0,25657.0,0.061107835590832514
20413.0,25672.0,0.07762080000460579
20423.0,25663.0,0.09399113458560669
20433.0,25665.0,0.11011057621312623
20443.0,25680.0,0.1258702800819704
20453.0,25666.0,0.14114585622071552
20462.0,25668.0,0.15578224294355705
20472.0,25670.0,0.16958029714382006
20483.0,25660.0,0.1822872187045552
20493.0,25677.0,0.19359292847989837
20503.0,25680.0,0.20313405748664323
20513.0,25696.0,0.21050630237597062
20523.0,25703.0,0.21528470857630436
20533.0,25707.0,0.2170503538262277
20543.0,25707.0,0.21542127214615267
20553.0,25714.0,0.2100853008696319
20563.0,25728.0,0.2008325299543815
20572.0,25729.0,0.18758474348294957
20582.0,25723.0,0.17041870390504554
20593.0,25695.0,0.14958003266446052
20603.0,25682.0,0.1254853592177437
20613.0,25661.0,0.09871201686222536
20623.0,25625.0,0.06997598821158521
20633.0,25604.0,0.04009972578504635
20643.0,25563.0,0.009972244507574914
20653.0,25546.0,-0.01949537619000247
20663.0,25528.0,-0.0474155548156068
20673.0,25509.0,-0.0729675411377072
20682.0,25498.0,-0.09543596673148265
20692.0,25488.0,-0.1142428732084673
20703.0,25457.0,-0.12897203471278024
20713.0,25464.0,-0.13938459282775204
20723.0,25469.0,-0.1454250531954681
20733.0,25481.0,-0.14721720056618726
20743.0,25476.0,-0.14505072591182694
20753.0,25470.0,-0.1393604161631893
20763.0,25496.0,-0.1306997976460156
20773.0,25496.0,-0.1197106864368011
20782.0,25507.0,-0.10709013083176228
20792.0,25513.0,-0.09355657645707406
20802.0,25517.0,-0.07981704487078245
20813.0,25523.0,-0.06653669095554472
20823.0,25529.0,-0.05431167580519294
20833.0,25542.0,-0.043646032481167885
20843.0,25556.0,-0.03493321575835455
20853.0,25555.0,-0.02844331191798186
20863.0,25547.0,-0.024317067706445157
20873.0,25543.0,-0.022567467297445253
20883.0,25535.0,-0.02308858034944917
20893.0,25527.0,-0.025670460349167267
20902.0,25527.0,-0.030018427924721917
20912.0,25512.0,-0.035775048748847585
20922.0,25493.0,-0.0425432131644369
20933.0,25509.0,-0.04990867837647378
20943.0,25498.0,-0.05746044807036662
20953.0,25492.0,-0.06480790959916638
20963.0,25493.0,-0.07159442209682965
20973.0,25488.0,-0.0775073833555847
20983.0,25488.0,-0.082284840838761
20993.0,25481.0,-0.08571883988708691
21003.0,25487.0,-0.08765582270188625
21012.0,25499.0,-0.08799447434026078
21022.0,25487.0,-0.0866816849064517
21032.0,25479.0,-0.08370757293558319
21043.0,25491.0,-0.07910024069046452
21053.0,25494.0,-0.07292029651822249
21063.0,25501.0,-0.06525504463232373
21073.0,25509.0,-0.05621269674175044
21083.0,25506.0,-0.0459172978826517
21093.0,25514.0,-0.03450494182922252
21103.0,25524.0,-0.022121483844151014
21113.0,25533.0,-0.008921707663111695
21122.0,25535.0,0.004930042456867892
21132.0,25544.0,0.01925766074570144
21142.0,25528.0,0.03386964017674976
21152.0,25555.0,0.04855466876969759
21163.0,25558.0,0.0630775630115488
21173.0,25555.0,0.0771764992301722
21183.0,25573.0,0.0905620373743945
21193.0,25564.0,0.10291826111548225
21203.0,25565.0,0.11390649028598027
21213.0,25579.0,0.12317215885851374
21223.0,25580.0,0.1303554274038608
21232.0,25586.0,0.13510568838375359
21242.0,25588.0,0.13709947175597348
21252.0,25587.0,0.13606083320036377
21262.0,25594.0,0.13178315273094143
21273.0,25599.0,0.12415109365269468
21283.0,25611.0,0.11316106456392865
21293.0,25611.0,0.09893790732337719
21303.0,25592.0,0.08174506373538037
21313.0,25565.0,0.06198577226853239
21323.0,25558.0,0.04019417487757339
21333.0,25532.0,0.0170168808789749
21342.0,25517.0,-0.006813450876750649
21352.0,25497.0,-0.030510665601732264
21362.0,25475.0,-0.05327183739353626
21372.0,25456.0,-0.07431600392965378
21382.0,25444.0,-0.09292255273759842
21393.0,25426.0,-0.10846684102931077
21403.0,25423.0,-0.12045081851053907
21413.0,25416.0,-0.12852681793389262
21423.0,25408.0,-0.13251318121102887
21433.0,25417.0,-0.1324008989676677
21443.0,25425.0,-0.1283509297550738
21453.0,25439.0,-0.12068251543907137
21462.0,25448.0,-0.1098536641970365
21472.0,25453.0,-0.0964356462099805
21482.0,25455.0,-0.0810834540122992
21492.0,25477.0,-0.0645037813428114
21503.0,25479.0,-0.047421661815946835
21513.0,25498.0,-0.030546888110844408
21523.0,25520.0,-0.014541591419904793
21533.0,25518.0,9.35546950888035e-06
21543.0,25532.0,0.012623301981441216
21553.0,25536.0,0.022938585388196105
21563.0,25536.0,0.030726123523515787
21572.0,25542.0,0.03589341926355639
21582.0,25541.0,0.03848097149184996
21592.0,25522.0,0.038651458946095535
21602.0,25529.0,0.036672539848851625
21613.0,25502.0,0.032894742505927284
21623.0,25510.0,0.027726456155749327
21633.0,25509.0,0.021608167125018746
21643.0,25493.0,0.014987740557733205
21653.0,25494.0,0.008297975312187355
21663.0,25490.0,0.0019373364580391207
21673.0,25483.0,-0.0037453048251853646
21682.0,25488.0,-0.00846130341888137
21692.0,25484.0,-0.011987985782933143
21702.0,25483.0,-0.01416960094621784
21712.0,25497.0,-0.01491387879972681
21722.0,25494.0,-0.014184910051033336
21733.0,25503.0,-0.011993430134142
21743.0,25516.0,-0.00838588844101798
21753.0,25507.0,-0.003433779837200087
21763.0,25517.0,0.002775400147361594
21773.0,25523.0,0.010144595759165416
21783.0,25520.0,0.018570535778588335
21792.0,25525.0,0.027943830912475463
21802.0,25527.0,0.038145985221840935
21812.0,25521.0,0.04904390038246041
21822.0,25526.0,0.060482857095231594
21832.0,25528.0,0.07227928898904369
21843.0,25540.0,0.08421478866398537
21853.0,25545.0,0.09603251297872205
21863.0,25551.0,0.10743661958792156
21873.0,25555.0,0.11809493522305937
21883.0,25558.0,0.12764490940546838
21893.0,25562.0,0.13570292890838828
21902.0,25573.0,0.14187703583279296
21912.0,25569.0,0.1457828638915038
21922.0,25569.0,0.14706227286694162
21932.0,25576.0,0.1454039774646146
21942.0,25581.0,0.1405653902978227
21953.0,25583.0,0.13239457251434078
21963.0,25588.0,0.12085061067188341
21973.0,25591.0,0.10602028031394163
21983.0,25569.0,0.08812870851038462
21993.0,25563.0,0.06754204118417391
22003.0,25539.0,0.044760980062802054
22012.0,25521.0,0.0204051811512392
22022.0,25505.0,-0.004810565393608657
22032.0,25479.0,-0.030106851949143042
22042.0,25458.0,-0.05467495806184017
22052.0,25438.0,-0.07771470794976106
22062.0,25423.0,-0.09847236029453306
22073.0,25424.0,-0.11627601258248356
22083.0,25406.0,-0.13056648842260826
22093.0,25397.0,-0.14092239376483356
22103.0,25404.0,-0.14707847714296468
22113.0,25401.0,-0.148936605237962
22122.0,25402.0,-0.14656901876185927
22132.0,25405.0,-0.14021402544024406
22142.0,25404.0,-0.1302644896567934
22152.0,25424.0,-0.11724943299853885
22162.0,25432.0,-0.10180917686041811
22172.0,25448.0,-0.08466492362332118
22183.0,25466.0,-0.0665842629404245
22193.0,25478.0,-0.04834449980141532
22203.0,25483.0,-0.030695854985235704
22213.0,25511.0,-0.014326488574867464
22223.0,25514.0,0.00016892232520883282
22233.0,25528.0,0.012315390626701608
22242.0,25532.0,0.021776984155124815
22252.0,25544.0,0.028368024701672573
22262.0,25522.0,0.03205530755439458
22272.0,25522.0,0.03295122373453073
22282.0,25516.0,0.031298673534911656
22292.0,25509.0,0.0274495761931194
22303.0,25506.0,0.021839062361040943
22313.0,25488.0,0.014957268084671696
22323.0,25485.0,0.0073205527818423636
22333.0,25482.0,-0.0005559801785348139
22343.0,25480.0,-0.008182913500635686
22352.0,25480.0,-0.015116682945861295
22362.0,25477.0,-0.020974955739242122
22372.0,25468.0,-0.025447156272605822
22382.0,25480.0,-0.028300210063016244
22392.0,25479.0,-0.02937962862574847
22402.0,25492.0,-0.028606366728816952
22413.0,25498.0,-0.02597043769941802
22423.0,25492.0,-0.02152269600625193
22433.0,25496.0,-0.015366151044635335
22443.0,25507.0,-0.007647660552110074
22453.0,25516.0,0.0014496427933640506
22462.0,25524.0,0.011712829971695062
22472.0,25527.0,0.022903928371399516
22482.0,25519.0,0.03476239137528817
22492.0,25524.0,0.04700534848976206
22502.0,25534.0,0.05932651864995836
22512.0,25530.0,0.07139509163041394
22523.0,25544.0,0.08285572294579012
22533.0,25538.0,0.09333045779959842
22543.0,25544.0,0.1024232313102064
22553.0,25547.0,0.10972754140132009
22563.0,25549.0,0.1148377999879068
22572.0,25561.0,0.11736458484198645
22582.0,25562.0,0.11695349417202754
22592.0,25555.0,0.11330671314991872
22602.0,25571.0,0.10620601677026988
22612.0,25575.0,0.09553573996983701
22622.0,25583.0,0.08130382112787328
22632.0,25575.0,0.06365834600921527
22643.0,25556.0,0.042896769098612064
22653.0,25533.0,0.01946569209133918
22663.0,25517.0,-0.006049480734805501
22673.0,25502.0,-0.03294426599250819
22682.0,25477.0,-0.06042269978873807
22692.0,25461.0,-0.08763113443475815
22702.0,25431.0,-0.11369642069356291
22712.0,25414.0,-0.13776631514611778
22722.0,25397.0,-0.1590495692646452
22732.0,25395.0,-0.17685305457628783
22742.0,25379.0,-0.1906136702649245
22753.0,25376.0,-0.19992347673013675
22763.0,25372.0,-0.20454704340028185
22773.0,25382.0,-0.20443030412403243
22783.0,25380.0,-0.1997006034186888
22792.0,25393.0,-0.1906581756893822
22802.0,25406.0,-0.17775978171331103
22812.0,25410.0,-0.161595557416312
22822.0,25424.0,-0.14286035363669872
22832.0,25436.0,-0.12232086855512671
22842.0,25460.0,-0.10077979441401057
22852.0,25488.0,-0.07903839349121518
22862.0,25492.0,-0.05785948140553177
22873.0,25500.0,-0.037933214310264515
22883.0,25524.0,-0.019847768564986296
22893.0,25530.0,-0.004066253214937188
22903.0,25541.0,0.009089207285512378
22912.0,25539.0,0.0194453696813773
22922.0,25538.0,0.026977289703469815
22932.0,25535.0,0.03179959258670989
22942.0,25527.0,0.03415073857288528
22952.0,25526.0,0.03437199913987651
22962.0,25522.0,0.03288313231860108
22972.0,25522.0,0.030156703424799338
22983.0,25517.0,0.026692697744965025
22993.0,25521.0,0.022994686626429322
23003.0,25523.0,0.019548441776368535
23013.0,25527.0,0.016803479284337678
23022.0,25528.0,0.015157554643212268
23032.0,25523.0,0.014943822425004987
23042.0,25519.0,0.016420424793114057
23052.0,25526.0,0.01976263907629674
23062.0,25541.0,0.025057997049343778
23072.0,25540.0,0.03230455508508409
23082.0,25542.0,0.041411939300300564
23093.0,25550.0,0.05220460307071095
23103.0,25558.0,0.06442705368987144
23113.0,25569.0,0.07775105195438832
23123.0,25577.0,0.09178465443130716
23132.0,25580.0,0.10608274254735124
23142.0,25588.0,0.1201586868801213
23152.0,25582.0,0.13349705715095206
23162.0,25605.0,0.14556761657769904
23172.0,25592.0,0.1558409620797231
23182.0,25599.0,0.16380602588784712
23192.0,25610.0,0.16898949743152888
23202.0,25617.0,0.17097706584299788
23213.0,25616.0,0.1694358870407688
23223.0,25625.0,0.1641370051168387
23233.0,25636.0,0.15497604852890406
23242.0,25631.0,0.14199024636239269
23252.0,25620.0,0.12536953205533227
23262.0,25604.0,0.10545969537034057
23272.0,25593.0,0.08275645433154202
23282.0,25571.0,0.0578904217602624
23292.0,25562.0,0.03160369072018081
23302.0,25529.0,0.004719171223495954
23312.0,25512.0,-0.021895822687052487
23323.0,25483.0,-0.04736971351373963
23333.0,25476.0,-0.07086796464518277
23343.0,25456.0,-0.091632805910886
23352.0,25445.0,-0.10901895487760477
23362.0,25441.0,-0.12252342460309819
23372.0,25435.0,-0.13180798073177288
23382.0,25425.0,-0.13671327503985814
23392.0,25433.0,-0.13726408978320062
23402.0,25446.0,-0.13366544312180723
23412.0,25449.0,-0.12628982806150765
23422.0,25452.0,-0.11565660846750478
23433.0,25451.0,-0.10240497151431888
23443.0,25479.0,-0.08726158526860717
23453.0,25492.0,-0.0710039192962167
23462.0,25504.0,-0.05442067535055932
23472.0,25527.0,-0.038271542447139165
23482.0,25535.0,-0.023248838280057176
23492.0,25539.0,-0.009943488610881993
23502.0,25558.0,0.0011825770766562946
23512.0,25551.0,0.009816092916417126
23522.0,25570.0,0.01580319129609359
23532.0,25557.0,0.019150598035991465
23542.0,25549.0,0.02001713564352632
23553.0,25537.0,0.018696146620684077
23563.0,25524.0,0.015590499980805736
23573.0,25522.0,0.011182740438141985
23582.0,25526.0,0.006003195824198199
23592.0,25516.0,0.0005983935856710518
23602.0,25499.0,-0.004498601471365025
23612.0,25513.0,-0.008794659100372733
23622.0,25511.0,-0.011858578317158128
23632.0,25519.0,-0.013337691322257596
23642.0,25516.0,-0.012969019409758668
23652.0,25531.0,-0.010585561284435569
23663.0,25524.0,-0.006118468726844273
23673.0,25535.0,0.00040414420400006136
23683.0,25546.0,0.008861086190800855
23692.0,25549.0,0.019044049959676918
23702.0,25552.0,0.030664980310875563
23712.0,25550.0,0.043364285081054575
23722.0,25557.0,0.056719806604931165
23732.0,25553.0,0.07025703703831807
23742.0,25573.0,0.08346132426462459
23752.0,25579.0,0.0957926428684869
23762.0,25582.0,0.10670296070721716
23772.0,25586.0,0.11565568482593455
23783.0,25593.0,0.1221465271989423
23793.0,25597.0,0.12572522786728235
23802.0,25602.0,0.1260174756174029
23812.0,25603.0,0.12274606063198847
23822.0,25595.0,0.11575005914177125
23832.0,25604.0,0.10500083479613459
23842.0,25598.0,0.09061371396872925
23852.0,25599.0,0.07285410053000838
23862.0,25587.0,0.052136596824462145
23872.0,25560.0,0.02901580262318035
23882.0,25535.0,0.004168208489591213
23893.0,25526.0,-0.021634130103224094
23903.0,25504.0,-0.04755635165582034
23912.0,25485.0,-0.07273787635828564
23922.0,25467.0,-0.0963318775826126
23932.0,25440.0,-0.11754517136413377
23942.0,25430.0,-0.13567627623326797
23952.0,25420.0,-0.1501491867703155
23962.0,25416.0,-0.16054058964651774
23972.0,25422.0,-0.16659891852353212
23982.0,25412.0,-0.16825453291494302
23992.0,25414.0,-0.16562099919919965
24002.0,25422.0,-0.15898771163580683
24013.0,25425.0,-0.1488041283180434
24022.0,25439.0,-0.1356561179410177
24032.0,25458.0,-0.1202353712828257
24042.0,25472.0,-0.10330338723731602
24052.0,25477.0,-0.0856520920617943
24062.0,25496.0,-0.06806339489211814
24072.0,25518.0,-0.05126981638089603
24082.0,25528.0,-0.03591821653467253
24092.0,25539.0,-0.02253882888607053
24102.0,25536.0,-0.011521777950111263
24112.0,25542.0,-0.0031026094116767327
24123.0,25541.0,0.002642615081636726
24133.0,25540.0,0.005792909077283778
24142.0,25532.0,0.006569373800729363
24152.0,25517.0,0.005314780753721216
24162.0,25509.0,0.0024674547566505434
24172.0,25503.0,-0.0014681857942644855
24182.0,25503.0,-0.005951816051980809
24192.0,25510.0,-0.010435881641557534
24202.0,25509.0,-0.014391394655958189
24212.0,25501.0,-0.017330375695694292
24222.0,25509.0,-0.01882491792329062
24233.0,25505.0,-0.01852280620825124
24243.0,25510.0,-0.016159528919680134
24252.0,25515.0,-0.011566624208791088
24262.0,25519.0,-0.004676471979133966
24272.0,25525.0,0.004476223465745693
24282.0,25530.0,0.01575594337237243
24292.0,25540.0,0.028930562965108066
24302.0,25543.0,0.043678022501024746
24312.0,25558.0,0.059595256103748856
24322.0,25562.0,0.07620917599644784
24332.0,25571.0,0.09298948758371839
24342.0,25570.0,0.10936314186813091
24353.0,25572.0,0.1247304463938582
24362.0,25583.0,0.13848319534544876
24372.0,25594.0,0.15002530234223144
24382.0,25596.0,0.15879604086016783
24392.0,25607.0,0.16429532611438089
24402.0,25615.0,0.1661099455029576
24412.0,25625.0,0.16393927985914591
24422.0,25629.0,0.15761863209870577
24432.0,25620.0,0.14713791808460167
24442.0,25617.0,0.13265353863559065
24452.0,25608.0,0.11449180995568971
24463.0,25594.0,0.09314303687194884
24472.0,25570.0,0.06924591787281871
24482.0,25549.0,0.04356264904650307
24492.0,25525.0,0.016945984985681912
24502.0,25508.0,-0.009699660352814138
24512.0,25484.0,-0.035460561154387255
24522.0,25469.0,-0.05945691650261096
24532.0,25453.0,-0.08088453903604097
24542.0,25434.0,-0.09905274018241025
24552.0,25428.0,-0.11341637423434231
24562.0,25427.0,-0.1236002752408974
24573.0,25420.0,-0.12941479657238505
24582.0,25420.0,-0.13086184184908467
24592.0,25420.0,-0.12813132478725894
24602.0,25422.0,-0.12158825100346793
24612.0,25444.0,-0.11175082834117264
24622.0,25457.0,-0.09926050543479939
24632.0,25473.0,-0.08484567286587626
24642.0,25489.0,-0.06928157692763166
24652.0,25495.0,-0.053349330045828945
24662.0,25502.0,-0.037796672956285596
24672.0,25518.0,-0.02330256822829857
24683.0,25523.0,-0.01044711648510055
24692.0,25527.0,0.00031204530218942317
24702.0,25539.0,0.008655904103544547
24712.0,25528.0,0.014412149465792928
24722.0,25519.0,0.01755501982820387
24732.0,25523.0,0.018197480457653292
24742.0,25522.0,0.016577033563124635
24752.0,25522.0,0.013036656614421913
24762.0,25505.0,0.008002017357271695
24772.0,25494.0,0.001955964563871182
24782.0,25494.0,-0.004588293447833483
24792.0,25495.0,-0.011113493622056837
24803.0,25491.0,-0.017122523734515026
24812.0,25485.0,-0.022159671218649774
24822.0,25487.0,-0.025828550614899255
24832.0,25484.0,-0.02780641383229409
24842.0,25484.0,-0.027854554519002317
24852.0,25494.0,-0.02582466312289877
24862.0,25499.0,-0.021661246661963042
24872.0,25509.0,-0.01540060858591639
24882.0,25500.0,-0.007167234553369924
24892.0,25516.0,0.002831592376773228
24902.0,25515.0,0.014312515257265155
24913.0,25521.0,0.026924071376580757
24922.0,25529.0,0.04025590529107069
24932.0,25534.0,0.05384925322996817
24942.0,25532.0,0.06720876383161956
24952.0,25536.0,0.07981580704045427
24962.0,25552.0,0.09114359305514741
24972.0,25557.0,0.1006743767350691
24982.0,25555.0,0.10791853703528641
24992.0,25555.0,0.11243485532003204
25002.0,25567.0,0.11385132826084304
25012.0,25572.0,0.11188594729516815
25022.0,25569.0,0.10636651037853971
25032.0,25583.0,0.09724794530466749
25042.0,25579.0,0.08462527882886191
25052.0,25558.0,0.06874030546848163
25062.0,25552.0,0.049980321944222396
25072.0,25534.0,0.028868193846888848
25082.0,25518.0,0.006044053307129167
25092.0,25503.0,-0.017760450117083486
25102.0,25472.0,-0.041754067486301345
25112.0,25458.0,-0.06512232968508955
25122.0,25441.0,-0.08706617854194282
25132.0,25423.0,-0.10684036820810155
25142.0,25409.0,-0.12378927272320846
25152.0,25404.0,-0.1373780213754003
25162.0,25388.0,-0.14721717908010032
25172.0,25395.0,-0.15307957138448308
25182.0,25392.0,-0.15490834047182703
25192.0,25400.0,-0.1528159141341858
25202.0,25409.0,-0.14707425799355686
25212.0,25418.0,-0.13809741441405077
25222.0,25418.0,-0.12641776983421532
25232.0,25433.0,-0.11265762412638414
25242.0,25439.0,-0.09749748040299343
25252.0,25463.0,-0.08164235635284665
25262.0,25470.0,-0.06578761598234162
25272.0,25480.0,-0.05058616450605846
25282.0,25486.0,-0.03661891650721107
25292.0,25498.0,-0.02437008373710785
25302.0,25503.0,-0.01420834889671514
25312.0,25514.0,-0.006374726403329089
25322.0,25500.0,-0.0009777686255979295
25332.0,25497.0,0.0020036097732196753
25342.0,25497.0,0.0027102022481886165
25352.0,25488.0,0.0013867800154251104
25361.0,25483.0,-0.00163781511144204
25372.0,25472.0,-0.005973143910612951
25382.0,25459.0,-0.011190537976264285
25392.0,25462.0,-0.01684553862515872
25402.0,25460.0,-0.0224976406420354
25412.0,25462.0,-0.02772609957347856
25422.0,25469.0,-0.03214142044697152
25432.0,25469.0,-0.03539294451762815
25442.0,25472.0,-0.037173468961307896
25452.0,25475.0,-0.03722203661352056
25462.0,25479.0,-0.035325966645027115
25472.0,25486.0,-0.03132304180622954
25482.0,25484.0,-0.025104643699509568
25492.0,25487.0,-0.016620428448269883
25502.0,25484.0,-0.005884710368098024
25512.0,25489.0,0.007015872345341621
25522.0,25496.0,0.021914341993475493
25532.0,25493.0,0.03855617004898339
25542.0,25500.0,0.056594055755433026
25552.0,25497.0,0.07558597069107936
25562.0,25509.0,0.09499790995849111
25572.0,25513.0,0.11421277966164281
25582.0,25519.0,0.13254651931694075
25592.0,25540.0,0.14927200657825698
25602.0,25553.0,0.16365057936081265
25612.0,25572.0,0.17497004962148274
25622.0,25593.0,0.18258697964396062
25632.0,25601.0,0.18597005665167915
25642.0,25619.0,0.18474081818947558
25652.0,25626.0,0.17870777925714082
25662.0,25604.0,0.1678902006250496
25672.0,25603.0,0.15252847765449948
25682.0,25579.0,0.13307951782779548
25692.0,25552.0,0.11019707118934227
25701.0,25524.0,0.08469833784291218
25712.0,25491.0,0.05751939095414566
25722.0,25465.0,0.029663023842123316
25732.0,25442.0,0.0021432506041085377
25742.0,25426.0,-0.024069304807234463
25752.0,25405.0,-0.04809743105710185
25762.0,25397.0,-0.06919987434310391
25772.0,25386.0,-0.08680432279810114
25782.0,25373.0,-0.10052947603596077
25792.0,25378.0,-0.11019549312474132
25802.0,25375.0,-0.11582268968467677
25811.0,25385.0,-0.11761901333879161
25822.0,25403.0,-0.11595764637446579
25832.0,25391.0,-0.11134690400555572
25842.0,25405.0,-0.10439506719933796
25852.0,25400.0,-0.09577260091383538
25862.0,25416.0,-0.08617361250850022
25872.0,25427.0,-0.07627805375789716
25882.0,25427.0,-0.06671628087904098
25892.0,25430.0,-0.058037756437755626
25902.0,25441.0,-0.05068545736411747
25912.0,25449.0,-0.044977092903392205
25921.0,25441.0,-0.04109401004444012
25932.0,25436.0,-0.039078528573530474
25942.0,25422.0,-0.0388398408731778
25952.0,25421.0,-0.040167582399153
25962.0,25409.0,-0.042751346102168526
25972.0,25417.0,-0.04620415862934579
25982.0,25409.0,-0.0500881871669044
25992.0,25400.0,-0.05394140925933423
26002.0,25383.0,-0.05730421028046948
26012.0,25388.0,-0.059744597675068574
26022.0,25387.0,-0.060880345582914726
26031.0,25395.0,-0.060396608288589344
26041.0,25388.0,-0.05805835495543051
26052.0,25393.0,-0.05371768264394777
26062.0,25395.0,-0.04731624638564591
26072.0,25402.0,-0.03888297685228374
26082.0,25418.0,-0.028527369334619017
26092.0,25429.0,-0.0164290405414574
26102.0,25439.0,-0.00282479696942448
26112.0,25437.0,0.0120052117320964
26122.0,25460.0,0.027750862004802885
26132.0,25460.0,0.044084032350057256
26142.0,25470.0,0.06066857061531354
26151.0,25472.0,0.0771677905656841
26162.0,25471.0,0.0932493932944476
26172.0,25471.0,0.10858828525904353
26182.0,25490.0,0.12286827779029988
26192.0,25483.0,0.13578377623557988
26202.0,25491.0,0.14704224257631437
26212.0,25507.0,0.15636783303148882
26222.0,25492.0,0.16350637838454116
26232.0,25488.0,0.16823172014057694
26242.0,25503.0,0.1703535332720644
26252.0,25507.0,0.16972695464313534
26261.0,25505.0,0.16626388576403592
26272.0,25502.0,0.15994496676465772
26282.0,25505.0,0.15083083301205924
26292.0,25513.0,0.13907135694684647
26302.0,25510.0,0.12491146140482336
26312.0,25503.0,0.10869170739443489
26322.0,25482.0,0.09084183348074881
26332.0,25458.0,0.07186620106891162
26342.0,25435.0,0.05232150083989638
26352.0,25408.0,0.03278853970028838
26362.0,25390.0,0.013840961220458688
26371.0,25362.0,-0.003985801895017171
26381.0,25341.0,-0.020222107393997255
26392.0,25305.0,-0.03448554803792184
26402.0,25292.0,-0.04649474492160895
26412.0,25280.0,-0.05607542222193445
26422.0,25275.0,-0.06315978981408638
26432.0,25274.0,-0.06778067751340282
26442.0,25274.0,-0.07006184452433754
26452.0,25273.0,-0.07020572395841426
26462.0,25284.0,-0.06847965067064814
26472.0,25301.0,-0.06520138231584578
26482.0,25316.0,-0.060724478752480784
26491.0,25336.0,-0.05542387228052602
26502.0,25337.0,-0.04968175676012866
26512.0,25341.0,-0.04387376042754734
26522.0,25367.0,-0.03835526070551988
26532.0,25377.0,-0.03344770280221937
26542.0,25395.0,-0.02942503994417251
26552.0,25398.0,-0.026501030277577123
26562.0,25396.0,-0.02481881750356901
26572.0,25396.0,-0.024444359704599898
26582.0,25390.0,-0.025364653933506415
26592.0,25388.0,-0.027490847559129557
26601.0,25387.0,-0.030665740455179946
26612.0,25381.0,-0.034674937030852435
26622.0,25367.0,-0.03926082467061914
26632.0,25372.0,-0.044138390227422414
26642.0,25364.0,-0.049011653331056344
26652.0,25358.0,-0.05358951919900958
26662.0,25365.0,-0.057600183776057315
26672.0,25353.0,-0.06080356342696923
26682.0,25348.0,-0.0630014513232944
26692.0,25350.0,-0.06404526675892726
26702.0,25365.0,-0.06384133540519671
26711.0,25365.0,-0.062353617836076236
26721.0,25372.0,-0.05960376724919351
26732.0,25367.0,-0.055668423244899755
26742.0,25383.0,-0.050673746589575935
26752.0,25391.0,-0.04478737360282612
26762.0,25393.0,-0.03820828962466971
26772.0,25408.0,-0.031155476509670776
26782.0,25401.0,-0.023856281684445684
26792.0,25410.0,-0.016535226083441348
26802.0,25433.0,-0.009403646400112497
26812.0,25432.0,-0.0026505217118443186
26821.0,25434.0,0.003564837549068466
26831.0,25441.0,0.009117435555230917
26842.0,25431.0,0.013918260726867195
26852.0,25444.0,0.017913351327152424
26862.0,25436.0,0.021081039562784343
26872.0,25452.0,0.023428238606422173
26882.0,25454.0,0.024986433465685933
26892.0,25458.0,0.0258076449871256
26902.0,25458.0,0.02596030203389216
26912.0,25464.0,0.025524916271208033
26922.0,25457.0,0.024589645335861665
26931.0,25464.0,0.023246028200698363
26941.0,25469.0,0.02158528670481168
