timestamp_ms,ir_value,ir_filtered
6906.0,25964.0,-0.09029216009300492
6916.0,25970.0,-0.055663486143193816
6926.0,25992.0,-0.02172749761900676
6936.0,26027.0,0.01258654828529451
6946.0,26048.0,0.04832819882346043
6956.0,26103.0,0.0864816445907796
6966.0,26151.0,0.1279333925646115
6975.0,26194.0,0.17345103924435828
6985.0,26236.0,0.22367013850609874
6996.0,26288.0,0.27908510458667
7006.0,26326.0,0.34004034233539626
7016.0,26371.0,0.40671851831547096
7026.0,26396.0,0.47912385419456294
7036.0,26440.0,0.5570599034997825
7045.0,26481.0,0.640103212856651
7055.0,26501.0,0.7275757840923294
7066.0,26547.0,0.8185202127266781
7076.0,26579.0,0.9116822500037158
7086.0,26626.0,1.00550608091368
7096.0,26668.0,1.0981471860328258
7105.0,26710.0,1.1875064150989505
7115.0,26759.0,1.271287412784144
7126.0,26811.0,1.3470779515508886
7136.0,26864.0,1.41245378976122
7146.0,26910.0,1.4651012854408798
7155.0,26979.0,1.502952515953521
7165.0,27037.0,1.5243242486315511
7176.0,27083.0,1.5280495740458024
7186.0,27115.0,1.5135889396356914
7196.0,27122.0,1.4811071331609311
7205.0,27128.0,1.4315050858379648
7216.0,27088.0,1.3663995205051387
7226.0,27053.0,1.2880486650091474
7236.0,26980.0,1.199228170674361
7245.0,26920.0,1.103067569105978
7255.0,26879.0,1.0028629360285997
7266.0,26849.0,0.9018842506861929
7276.0,26838.0,0.8031950288816745
7286.0,26824.0,0.709497727038996
7295.0,26808.0,0.623013297373907
7306.0,26809.0,0.5453990686548207
7316.0,26831.0,0.47770621288187787
7326.0,26827.0,0.42037541597827244
7335.0,26835.0,0.37326657186270706
7346.0,26833.0,0.3357165552754149
7356.0,26851.0,0.30661910750931415
7366.0,26859.0,0.28452146396354955
7375.0,26881.0,0.26773235513913524
7386.0,26895.0,0.25443547666650274
7396.0,26924.0,0.24280199427634797
7406.0,26916.0,0.2310954288994603
7415.0,26926.0,0.21776277214521772
7425.0,26928.0,0.20150733255747869
7436.0,26937.0,0.18134100206039122
7446.0,26938.0,0.15661512346597517
7455.0,26939.0,0.12702972208080968
7465.0,26936.0,0.09262129843665903
7476.0,26908.0,0.053730222219196204
7486.0,26883.0,0.010950315261321807
7496.0,26838.0,-0.03493433358667736
7505.0,26832.0,-0.08301746759515774
7516.0,26817.0,-0.1323341887230762
7526.0,26844.0,-0.18191142557113324
7536.0,26852.0,-0.23080057606482443
7545.0,26865.0,-0.27809251897092774
7555.0,26862.0,-0.32291923159437
7566.0,26874.0,-0.36444794983345835
7576.0,26874.0,-0.40187351545687033
7586.0,26870.0,-0.4344136067682509
7595.0,26868.0,-0.4613104834440288
7606.0,26855.0,-0.4818413988561819
7616.0,26861.0,-0.495337990006849
7626.0,26848.0,-0.5012132850339628
7635.0,26852.0,-0.49899380308011093
7645.0,26862.0,-0.4883534931531077
7656.0,26878.0,-0.4691460444812941
7666.0,26897.0,-0.4414326982193938
7676.0,26913.0,-0.40550383957036235
7685.0,26941.0,-0.3618935841314339
7696.0,26960.0,-0.3113869929564255
7706.0,26987.0,-0.2550197150013051
7716.0,26992.0,-0.19406983015502688
7725.0,27008.0,-0.13004111877026284
7735.0,27048.0,-0.06463595222535819
7746.0,27081.0,0.0002843858527436722
7756.0,27110.0,0.06275277140322294
7765.0,27131.0,0.12076123192587285
7775.0,27181.0,0.17233489386957518
7786.0,27204.0,0.2156112289839133
7796.0,27237.0,0.24891998326055184
7805.0,27257.0,0.27085836876601144
7815.0,27286.0,0.2803567752718361
7826.0,27297.0,0.2767322913171244
7836.0,27303.0,0.25972922972105755
7845.0,27314.0,0.22954652784028598
7855.0,27314.0,0.1868513749925284
7866.0,27295.0,0.13277736571990284
7876.0,27263.0,0.06890441141821925
7885.0,27209.0,-0.002783146835126856
7895.0,27138.0,-0.07996361809557072
7906.0,27075.0,-0.1600711130276833
7916.0,27031.0,-0.24041032045535318
7925.0,26987.0,-0.31828289022394063
7935.0,26959.0,-0.3911130845643461
7946.0,26929.0,-0.45656168518393536
7956.0,26926.0,-0.5126199926346573
7965.0,26909.0,-0.5576787605045318
7975.0,26923.0,-0.59056989148985
7986.0,26936.0,-0.6105815954907269
7996.0,26947.0,-0.6174503760797815
8005.0,26961.0,-0.6113353942263863
8015.0,26967.0,-0.5927817490053382
8026.0,26963.0,-0.5626786093724528
8036.0,26967.0,-0.5222162182923916
8045.0,26978.0,-0.47284326257803155
8055.0,26974.0,-0.41622394926811446
8066.0,26981.0,-0.354192881763161
8076.0,27001.0,-0.2887051183182713
8086.0,27021.0,-0.22177860567122445
8095.0,27056.0,-0.15542716940435858
8105.0,27084.0,-0.09158438742809497
8116.0,27128.0,-0.03202115810874624
8126.0,27157.0,0.021737995182090783
8135.0,27198.0,0.06849309435222771
8145.0,27210.0,0.107433551710345
8156.0,27220.0,0.1381820266127497
8166.0,27207.0,0.16081132692577824
8175.0,27212.0,0.17583150093130134
8185.0,27173.0,0.1841478237441538
8196.0,27172.0,0.1869934832194737
8206.0,27144.0,0.18584318155142632
8215.0,27129.0,0.18231537805234665
8225.0,27113.0,0.17807133842760767
8236.0,27105.0,0.17471884114364028
8246.0,27107.0,0.17372746595882244
8255.0,27109.0,0.1763606634265604
8265.0,27120.0,0.18362746438587826
8276.0,27121.0,0.19625434196851954
8286.0,27148.0,0.2146758909636296
8295.0,27160.0,0.23904161624191264
8305.0,27186.0,0.2692348589433319
8316.0,27207.0,0.3048987572797321
8326.0,27217.0,0.345463585122255
8336.0,27220.0,0.39017024274237777
8345.0,27223.0,0.438086331722957
8355.0,27217.0,0.4881138642319745
8366.0,27230.0,0.538990332168474
8376.0,27219.0,0.5892867737264663
8385.0,27226.0,0.6374073958470814
8395.0,27222.0,0.6815954728693203
8406.0,27242.0,0.7199499546572167
8416.0,27247.0,0.7504565835437331
8425.0,27250.0,0.7710363257557401
8435.0,27247.0,0.7796126022780158
8446.0,27260.0,0.7741972183457471
8456.0,27245.0,0.752993072695338
8465.0,27241.0,0.7145096918295931
8475.0,27223.0,0.6576854668392114
8486.0,27210.0,0.5820084000838386
8496.0,27208.0,0.4876255321088158
8506.0,27189.0,0.375430184297883
8515.0,27159.0,0.24711569494850347
8525.0,27106.0,0.10518484583358341
8536.0,27036.0,-0.04709347858351322
8546.0,26927.0,-0.20578428422642214
8555.0,26837.0,-0.36644059017608277
8565.0,26730.0,-0.5243021124301968
8575.0,26624.0,-0.6745230582790239
8586.0,26556.0,-0.8124100373664427
8596.0,26504.0,-0.933650170091992
8605.0,26496.0,-1.0345116943124277
8615.0,26492.0,-1.1120049154396554
8625.0,26465.0,-1.1639985074962789
8636.0,26472.0,-1.1892919133233355
8646.0,26468.0,-1.1876470619390223
8655.0,26468.0,-1.1597827475571671
8665.0,26484.0,-1.1073345935772947
8675.0,26503.0,-1.0327831269493124
8686.0,26543.0,-0.9393523692229576
8696.0,26568.0,-0.8308819705857615
8705.0,26616.0,-0.7116770027718659
8715.0,26639.0,-0.5863403292425353
8726.0,26686.0,-0.45959265512971426
8736.0,26738.0,-0.3360852456253189
8745.0,26796.0,-0.22021073345693012
8755.0,26845.0,-0.1159190151350579
8766.0,26891.0,-0.026547289259920028
8776.0,26933.0,0.045325499680305886
8785.0,26948.0,0.09798968377195864
8795.0,26949.0,0.13067263733943144
8806.0,26937.0,0.1435574087159799
8816.0,26918.0,0.13775043352732333
8825.0,26884.0,0.11520083067406474
8835.0,26858.0,0.07857730942023218
8845.0,26813.0,0.03111125869677549
8856.0,26785.0,-0.023583787368116702
8866.0,26735.0,-0.0817052932537589
8875.0,26700.0,-0.13945619549747829
8885.0,26671.0,-0.1932295187669022
8896.0,26664.0,-0.2397726897898737
8906.0,26643.0,-0.2763231076144608
8915.0,26647.0,-0.3007095941770405
8925.0,26658.0,-0.3114174396416751
8935.0,26667.0,-0.30761745062267426
8946.0,26687.0,-0.2891618892149844
8956.0,26690.0,-0.2565520671668581
8965.0,26708.0,-0.2108829943070448
8975.0,26740.0,-0.15377003330493663
8985.0,26757.0,-0.08726196996696492
8996.0,26791.0,-0.013744973004853129
9006.0,26800.0,0.06415789468346722
9016.0,26819.0,0.14368751193467194
9025.0,26850.0,0.222047119286756
9035.0,26872.0,0.2964967712176541
9046.0,26905.0,0.3644424288318294
9056.0,26926.0,0.4235175476117123
9065.0,26940.0,0.4716542785961555
9075.0,26934.0,0.5071414236875496
9085.0,26930.0,0.5286674329661369
9096.0,26925.0,0.5353487336757812
9105.0,26901.0,0.5267455042962892
9115.0,26897.0,0.5028679051165226
9125.0,26882.0,0.4641757997588231
9136.0,26884.0,0.4115741484049665
9146.0,26886.0,0.34640432667533017
9155.0,26883.0,0.270428923688618
9165.0,26857.0,0.18580504671476678
9175.0,26818.0,0.09504018202759854
9186.0,26781.0,0.0009261715118645018
9196.0,26712.0,-0.09354968907949913
9205.0,26661.0,-0.1853133992969696
9215.0,26610.0,-0.2713261101802386
9225.0,26588.0,-0.34870981490307357
9236.0,26566.0,-0.4148673522926147
9245.0,26551.0,-0.4675892672731588
9255.0,26538.0,-0.5051429613726459
9265.0,26530.0,-0.526341709263735
9276.0,26531.0,-0.5305921418690472
9286.0,26534.0,-0.5179192746525706
9295.0,26538.0,-0.4889685945426249
9305.0,26538.0,-0.4449850275934396
9316.0,26561.0,-0.38776851352700886
9326.0,26579.0,-0.3196057227627267
9335.0,26619.0,-0.2431779850636826
9345.0,26648.0,-0.1614470506902582
9356.0,26712.0,-0.07752241404545325
9366.0,26751.0,0.005483779626377598
9375.0,26798.0,0.08460596585653421
9385.0,26832.0,0.15716874411176746
9395.0,26868.0,0.2209149811737129
9406.0,26889.0,0.2741097616368719
9415.0,26899.0,0.31561324338373836
9425.0,26915.0,0.34491765873141195
9435.0,26901.0,0.36214626933368266
9446.0,26896.0,0.3680147419300096
9456.0,26864.0,0.36375813863563844
9465.0,26836.0,0.35102961827700147
9475.0,26798.0,0.33177980191498635
9485.0,26797.0,0.30812794431486945
9496.0,26787.0,0.28223650803188666
9505.0,26779.0,0.256198772917901
9515.0,26797.0,0.231945654511447
9525.0,26796.0,0.21117448680793816
9536.0,26805.0,0.19529966930795015
9546.0,26804.0,0.18542299077095561
9555.0,26821.0,0.18232052892626643
9565.0,26827.0,0.18644291460196766
9575.0,26830.0,0.19792569967261991
9586.0,26848.0,0.21660665127565326
9596.0,26847.0,0.24204733956474572
9605.0,26861.0,0.27355718396822093
9615.0,26867.0,0.31021894698721136
9625.0,26892.0,0.35091543204494596
9636.0,26902.0,0.394357493484674
9645.0,26923.0,0.43911325513119837
9655.0,26943.0,0.48363809508268063
9665.0,26945.0,0.5263048606495645
9676.0,26962.0,0.5654340249693899
9686.0,26966.0,0.5993241211066517
9695.0,26965.0,0.6262835146585692
9705.0,26975.0,0.6446650416827356
9715.0,26976.0,0.6529051521560044
9726.0,26977.0,0.6495687931374253
9736.0,26972.0,0.6334003456780221
9745.0,26964.0,0.6033799849579115
9755.0,26947.0,0.5587841889243003
9765.0,26939.0,0.49924866511504096
9775.0,26934.0,0.4248313607603512
9786.0,26933.0,0.33607195471922374
9796.0,26926.0,0.23404212915122602
9805.0,26912.0,0.12037869695445351
9815.0,26898.0,-0.0027096074128902473
9825.0,26840.0,-0.13247055290024537
9835.0,26774.0,-0.26567861761823375
9845.0,26703.0,-0.3987488473777137
9856.0,26606.0,-0.5278898854790892
9866.0,26528.0,-0.6492854428336531
9875.0,26472.0,-0.7592887034267368
9885.0,26435.0,-0.8546119447852303
9895.0,26408.0,-0.9324949139203323
9905.0,26409.0,-0.9908395855231938
9915.0,26411.0,-1.0283039965217253
9926.0,26402.0,-1.044352547367886
9936.0,26412.0,-1.0392635353471114
9945.0,26434.0,-1.0140962217531295
9955.0,26457.0,-0.9706203782164444
9965.0,26491.0,-0.9112123779716781
9975.0,26541.0,-0.8387235335141268
9986.0,26583.0,-0.7563280110904613
9996.0,26637.0,-0.6673591614618932
10005.0,26678.0,-0.5751441882986691
10015.0,26717.0,-0.48284720167095374
10025.0,26767.0,-0.39332978399731056
10036.0,26792.0,-0.30903667383631317
10045.0,26817.0,-0.23191246403503968
10055.0,26831.0,-0.16335309548405808
10065.0,26835.0,-0.10419310638480195
10075.0,26844.0,-0.05472650647800139
10086.0,26839.0,-0.01475649265581337
10095.0,26846.0,0.016332622918623786
10105.0,26845.0,0.03948883840901073
10115.0,26842.0,0.05589890515133923
10125.0,26845.0,0.06689498219718541
10136.0,26846.0,0.0738679611942956
10145.0,26853.0,0.07819289818043072
10155.0,26873.0,0.08117047475849318
10165.0,26893.0,0.08398630622146905
10176.0,26905.0,0.08768736036943178
10186.0,26905.0,0.09317252622451305
10195.0,26919.0,0.10119355711858262
10205.0,26933.0,0.11236317151246827
10215.0,26947.0,0.12716772257146258
10226.0,26966.0,0.1459817203627574
10236.0,26983.0,0.1690810492441977
10245.0,26992.0,0.19665161613951973
10255.0,27006.0,0.22879065526096443
10265.0,27019.0,0.26549902584770235
10276.0,27016.0,0.30666429287452723
10285.0,27024.0,0.35203595621676037
10295.0,27043.0,0.40119586928164036
10305.0,27050.0,0.45352811820828437
10316.0,27070.0,0.5081927904252754
10326.0,27083.0,0.5641075363618369
10335.0,27105.0,0.6199402834912139
10345.0,27115.0,0.6741158988955254
10355.0,27133.0,0.7248389397319149
10366.0,27156.0,0.7701339814722485
10375.0,27177.0,0.8079041161119692
10385.0,27185.0,0.8360067655133557
10395.0,27201.0,0.8523443971315152
10405.0,27209.0,0.8549666957467783
10416.0,27211.0,0.8421800773428766
10425.0,27224.0,0.8126596650218993
10435.0,27214.0,0.7655579244984883
10445.0,27225.0,0.7006031945771733
10456.0,27215.0,0.6181804467105357
10466.0,27203.0,0.5193859082897707
10475.0,27187.0,0.40604699269137984
10485.0,27127.0,0.2806998309967071
10495.0,27059.0,0.1465192461407239
10506.0,26974.0,0.007200737389379486
10515.0,26910.0,-0.13319975568519263
10525.0,26834.0,-0.27045710026099135
10535.0,26750.0,-0.40038499871582356
10545.0,26695.0,-0.5190454292601635
10556.0,26661.0,-0.6229439148244017
10565.0,26645.0,-0.7091964502454708
10575.0,26621.0,-0.7756577488850971
10585.0,26629.0,-0.8210053863191825
10596.0,26635.0,-0.8447785187521438
10606.0,26637.0,-0.8473728431076497
10615.0,26653.0,-0.8299956272207157
10625.0,26660.0,-0.7945856830857727
10635.0,26688.0,-0.7437032030554006
10646.0,26718.0,-0.6803942959734897
10655.0,26765.0,-0.6080355972362776
10665.0,26805.0,-0.5301656737336301
10675.0,26848.0,-0.45031161291692007
10685.0,26896.0,-0.3718203289433519
10696.0,26927.0,-0.2977043499813838
10705.0,26967.0,-0.23051131919673906
10715.0,26966.0,-0.17222515231143046
10725.0,26986.0,-0.12420446690740564
10736.0,26987.0,-0.08716064639800514
10745.0,26978.0,-0.061174591873516995
10755.0,26959.0,-0.0457484855566836
10765.0,26944.0,-0.039886415317291035
10775.0,26937.0,-0.042195440538906545
10786.0,26919.0,-0.05099752483323872
10795.0,26922.0,-0.06444319397122714
10805.0,26906.0,-0.08061921292397689
10815.0,26906.0,-0.09764429893850742
10825.0,26917.0,-0.11374860582738401
10836.0,26924.0,-0.12733460436827485
10845.0,26942.0,-0.1370193284886796
10855.0,26932.0,-0.14166028463562963
10865.0,26949.0,-0.14036857361155752
10876.0,26960.0,-0.13251268842546923
10885.0,26955.0,-0.11771591862054771
10895.0,26973.0,-0.0958498898168238
10905.0,26973.0,-0.06702613318912765
10915.0,26986.0,-0.03158665983257351
10926.0,26996.0,0.009906251139107357
10935.0,27021.0,0.05668131083975862
10945.0,27026.0,0.10777089657506347
10955.0,27047.0,0.16202537844854767
10966.0,27072.0,0.21812936338661887
10976.0,27085.0,0.2746202434484594
10985.0,27093.0,0.3299093192104715
10995.0,27099.0,0.3823059144931759
11005.0,27117.0,0.4300457442985541
11016.0,27110.0,0.47132561755625235
11025.0,27125.0,0.5043466365282295
11035.0,27132.0,0.5273675934119452
11045.0,27132.0,0.5387694040017361
11055.0,27137.0,0.5371300981697318
11066.0,27150.0,0.5213084238432967
11075.0,27155.0,0.4905325385284465
11085.0,27155.0,0.444488272407679
11095.0,27175.0,0.3833994343832496
11106.0,27169.0,0.30809107912486805
11115.0,27150.0,0.2200256114998999
11125.0,27116.0,0.12130179505550122
11135.0,27053.0,0.01460925929513293
11145.0,26992.0,-0.0968641247104001
11156.0,26916.0,-0.20956881608744649
11165.0,26841.0,-0.319765414979826
11175.0,26760.0,-0.4237186425095917
11185.0,26707.0,-0.5178974851274404
11196.0,26662.0,-0.5991643089238773
11205.0,26647.0,-0.6649369640548103
11215.0,26646.0,-0.7133116325619093
11225.0,26650.0,-0.7431395291622536
11235.0,26662.0,-0.754056103134496
11246.0,26667.0,-0.746465722687266
11255.0,26694.0,-0.721487300112293
11265.0,26713.0,-0.6808673943927857
11275.0,26740.0,-0.6268679236978362
11286.0,26765.0,-0.5621360672813203
11295.0,26789.0,-0.4895639527273132
11305.0,26828.0,-0.4121452400210921
11315.0,26854.0,-0.33283514407517956
11325.0,26883.0,-0.2544200891423144
11336.0,26902.0,-0.17940274522479063
11345.0,26929.0,-0.10990719033622752
11355.0,26944.0,-0.0476075561345424
11365.0,26960.0,0.006317740912972058
11376.0,26966.0,0.051205160109538045
11385.0,26965.0,0.08689877761015513
11395.0,26966.0,0.11371826753732198
11405.0,26959.0,0.13240529883829308
11415.0,26956.0,0.14405270650771168
11426.0,26934.0,0.1500215052252758
11435.0,26933.0,0.15185130180787065
11445.0,26915.0,0.1511700501993251
11455.0,26926.0,0.14960898966122355
11465.0,26925.0,0.14872757457322958
11476.0,26927.0,0.14995133944322492
11485.0,26934.0,0.15452365217990485
11495.0,26931.0,0.16347094859211264
11505.0,26941.0,0.1775804375635071
11516.0,26946.0,0.1973890580550954
11525.0,26954.0,0.22318232220881237
11535.0,26964.0,0.25500149385864734
11545.0,26986.0,0.2926573915298525
11555.0,27012.0,0.3357488036234668
11566.0,27008.0,0.38368288426084984
11575.0,27033.0,0.43569461011174265
11585.0,27028.0,0.49086325359021954
11595.0,27051.0,0.5481254611802981
11606.0,27064.0,0.6062858092690155
11615.0,27068.0,0.6640261865324458
11625.0,27080.0,0.7199154152929241
11635.0,27074.0,0.7724208500045118
11645.0,27073.0,0.8199244703939199
11656.0,27086.0,0.8607467763947482
11665.0,27097.0,0.8931818405898498
11675.0,27090.0,0.9155456290628615
11685.0,27090.0,0.9262377949940214
11695.0,27107.0,0.9238157659858153
11706.0,27102.0,0.9070788206930553
11715.0,27104.0,0.8751580364090676
11725.0,27102.0,0.8276059540328328
11735.0,27096.0,0.7644784824867975
11745.0,27095.0,0.6864007986763503
11756.0,27071.0,0.5946084237501373
11765.0,27042.0,0.4909546643436228
11775.0,26975.0,0.3778770402165172
11785.0,26914.0,0.25831877396449127
11795.0,26830.0,0.13560656667968543
11806.0,26723.0,0.0132915937945795
11815.0,26648.0,-0.10503397139504501
11825.0,26581.0,-0.2159283330924937
11835.0,26547.0,-0.3162812115505222
11845.0,26523.0,-0.40346895624759666
11856.0,26501.0,-0.4754730816919021
11865.0,26498.0,-0.530957416230508
11875.0,26483.0,-0.5693035716101859
11885.0,26481.0,-0.5906073163843314
11895.0,26487.0,-0.5956399891317827
11905.0,26488.0,-0.58577988050547
11916.0,26501.0,-0.5629190822768386
11925.0,26521.0,-0.5293517862000207
11935.0,26529.0,-0.4876503870458626
11945.0,26546.0,-0.4405359648889704
11955.0,26557.0,-0.3907494720647806
11965.0,26581.0,-0.3409291773288902
11976.0,26589.0,-0.29349918032876576
11985.0,26600.0,-0.2505733491417079
11995.0,26609.0,-0.213878416574246
12005.0,26611.0,-0.18469894849244708
12015.0,26618.0,-0.16384578669119154
12025.0,26612.0,-0.1516486467868427
12035.0,26594.0,-0.14797267097417618
12046.0,26572.0,-0.15225745607311522
12055.0,26567.0,-0.16357524941062498
12065.0,26539.0,-0.18070339792925064
12075.0,26525.0,-0.20220558314628725
12085.0,26511.0,-0.22651658551303788
12095.0,26495.0,-0.2520257482859394
12105.0,26476.0,-0.2771549964052683
12116.0,26461.0,-0.3004280493445154
12125.0,26450.0,-0.3205279808500755
12135.0,26448.0,-0.336340772183338
12145.0,26440.0,-0.34698346712854516
12155.0,26443.0,-0.35181687636208125
12165.0,26453.0,-0.35044405285914415
12175.0,26464.0,-0.34269691140831926
12185.0,26461.0,-0.3286145080468873
12196.0,26464.0,-0.30841710423390434
12205.0,26472.0,-0.2824795897595578
12215.0,26480.0,-0.25130662065901005
12225.0,26480.0,-0.21551094393824
12235.0,26489.0,-0.17579586577698103
12245.0,26508.0,-0.13294219771966226
12255.0,26507.0,-0.08779950285810116
12265.0,26508.0,-0.04128126578318178
12276.0,26511.0,0.005636951210023026
12285.0,26518.0,0.05191850415839733
12295.0,26519.0,0.09646888819442088
12305.0,26526.0,0.13814429925331304
12315.0,26537.0,0.17576814189554685
12325.0,26552.0,0.208157240615909
12335.0,26554.0,0.23415818523264442
12345.0,26560.0,0.2526927680808933
12356.0,26566.0,0.26281050520723964
12365.0,26580.0,0.2637456994811508
12375.0,26580.0,0.25497569744497983
12385.0,26583.0,0.23627581959297064
12395.0,26583.0,0.2077655960229797
12405.0,26570.0,0.16994081869628483
12415.0,26556.0,0.12368640538583318
12425.0,26520.0,0.07026620220101605
12436.0,26486.0,0.011287846531752124
12445.0,26451.0,-0.05135650543324886
12455.0,26406.0,-0.11557011157620198
12465.0,26371.0,-0.17914676130381693
12475.0,26336.0,-0.23987438192635602
12485.0,26313.0,-0.29563996957336564
12495.0,26286.0,-0.3445290978893136
12505.0,26263.0,-0.3849143362859369
12516.0,26244.0,-0.4155280001016281
12525.0,26241.0,-0.4355154586604937
12535.0,26237.0,-0.4444661619856679
12545.0,26244.0,-0.4424210546535389
12555.0,26254.0,-0.42985689680894995
12565.0,26260.0,-0.4076496601862074
12575.0,26270.0,-0.3770202583143254
12586.0,26282.0,-0.33946625962081134
12596.0,26307.0,-0.29668316585969884
12605.0,26320.0,-0.2504789301386382
12615.0,26334.0,-0.20268580736972056
12625.0,26364.0,-0.15507385096652607
12635.0,26376.0,-0.10927021637730143
12645.0,26396.0,-0.06668832168865141
12655.0,26395.0,-0.028470730355154714
12666.0,26410.0,0.0045512463168213306
12675.0,26417.0,0.03187964964785987
12685.0,26417.0,0.053353283841502154
12695.0,26404.0,0.06913281642755978
12705.0,26410.0,0.07966895299107432
12715.0,26407.0,0.08565635980315545
12725.0,26388.0,0.08797676183322516
12736.0,26384.0,0.08763482874305423
12746.0,26374.0,0.08569086183040593
12755.0,26371.0,0.08319475610014447
12765.0,26356.0,0.08112552171436906
12775.0,26361.0,0.08033999179504937
12785.0,26356.0,0.08153366733913463
12795.0,26353.0,0.08521582089028464
12805.0,26363.0,0.0916999517403105
12816.0,26376.0,0.1011096228006907
12825.0,26398.0,0.11339834395951541
12835.0,26401.0,0.12838035480404422
12845.0,26419.0,0.14576767007553584
12855.0,26436.0,0.16520834271213417
12865.0,26444.0,0.18632122615226646
12875.0,26443.0,0.2087230130063125
12886.0,26440.0,0.23204436842027065
12895.0,26447.0,0.2559339318855244
12905.0,26444.0,0.2800510428927375
12915.0,26435.0,0.3040493651217545
12925.0,26441.0,0.3275543725845782
12935.0,26434.0,0.35013838739416087
12945.0,26427.0,0.37129730345861
12955.0,26432.0,0.3904331599464688
12966.0,26434.0,0.40684648560555015
12975.0,26429.0,0.4197415998528744
12985.0,26431.0,0.42824686045687976
12995.0,26443.0,0.431450692729166
13005.0,26450.0,0.428452978246713
13015.0,26465.0,0.4184294910265864
13025.0,26467.0,0.4007048460712167
13035.0,26490.0,0.3748276203838042
13046.0,26487.0,0.3406400972806559
13055.0,26485.0,0.2983343753615553
13065.0,26451.0,0.2484868768210459
13075.0,26424.0,0.1920653381782725
13085.0,26387.0,0.13040594759449317
13095.0,26349.0,0.06516208967983665
13105.0,26300.0,-0.0017709150046014168
13116.0,26276.0,-0.06834868905163598
13125.0,26249.0,-0.13248077582635054
13135.0,26219.0,-0.19213633146163123
13145.0,26172.0,-0.24544617731578017
13155.0,26174.0,-0.29079545375855725
13165.0,26159.0,-0.32690123251612146
13175.0,26146.0,-0.3528705368868292
13185.0,26138.0,-0.36823631305435756
13196.0,26146.0,-0.3729704399595826
13205.0,26159.0,-0.36747370906501997
13215.0,26158.0,-0.3525439565491022
13225.0,26173.0,-0.3293250431267385
13235.0,26193.0,-0.29924017815350024
13245.0,26211.0,-0.26391336377144514
13255.0,26226.0,-0.22508326121373634
13266.0,26259.0,-0.18451438847339663
13275.0,26273.0,-0.14391083105055508
13285.0,26293.0,-0.10483771797903135
13295.0,26290.0,-0.06865539139418063
13305.0,26306.0,-0.0364699324017559
13315.0,26311.0,-0.009101786579769058
13325.0,26311.0,0.012927346361516984
13335.0,26301.0,0.029390160886521726
13346.0,26290.0,0.040333812296784226
13355.0,26287.0,0.04604780199019842
13365.0,26286.0,0.04702426532562707
13375.0,26285.0,0.0439152345298964
13385.0,26283.0,0.037490370757782714
13395.0,26285.0,0.028597341776390336
13405.0,26285.0,0.018125984789264173
13416.0,26279.0,0.006976617857432945
13425.0,26280.0,-0.003967649724908028
13435.0,26279.0,-0.013864934399665399
13445.0,26269.0,-0.02193526314829958
13455.0,26272.0,-0.027478224566159427
13465.0,26285.0,-0.029887770839288858
13475.0,26282.0,-0.028664553539779973
13485.0,26278.0,-0.023426799586049315
13496.0,26276.0,-0.013920859741958627
13505.0,26280.0,-3.163719435417999e-05
13515.0,26279.0,0.018208013792897708
13525.0,26291.0,0.04061026650061259
13535.0,26298.0,0.06682886368802785
13545.0,26310.0,0.09635997521814951
13555.0,26315.0,0.12854763830480817
13565.0,26325.0,0.16259381479559953
13576.0,26340.0,0.19757320391006175
13585.0,26355.0,0.23245299555689608
13595.0,26353.0,0.26611742638153785
13605.0,26379.0,0.29739664196954896
13615.0,26377.0,0.32509930213744764
13625.0,26386.0,0.348048310741249
13635.0,26375.0,0.36511898646993285
13645.0,26382.0,0.37527936761172503
13655.0,26392.0,0.3776328713153185
13665.0,26395.0,0.3714631977242624
13675.0,26391.0,0.35627999039110864
13685.0,26400.0,0.3318623616591103
13695.0,26409.0,0.2982966030215317
13705.0,26404.0,0.2560036692779874
13715.0,26375.0,0.20575127177461427
13725.0,26349.0,0.14864592638137314
13735.0,26316.0,0.08610278009245131
13745.0,26285.0,0.019794259338574476
13755.0,26237.0,-0.04841897507162703
13765.0,26210.0,-0.11656974057911358
13775.0,26181.0,-0.1826726503892912
13785.0,26159.0,-0.2448127560506713
13795.0,26128.0,-0.3012290702598237
13806.0,26114.0,-0.35038868021754355
13815.0,26114.0,-0.3910480448709049
13825.0,26090.0,-0.4222991100719938
13835.0,26081.0,-0.44359919541711623
13845.0,26083.0,-0.4547843388508844
13855.0,26093.0,-0.45606589448825047
13865.0,26102.0,-0.4480108690586664
13875.0,26084.0,-0.431507860400123
13886.0,26099.0,-0.407721035373159
13895.0,26118.0,-0.37803382076166503
13905.0,26126.0,-0.3439834315230397
13915.0,26141.0,-0.30718811967081666
13925.0,26167.0,-0.26927009584464096
13935.0,26196.0,-0.23177766209282805
13945.0,26214.0,-0.19611083512459707
13955.0,26219.0,-0.1634556301253394
13966.0,26236.0,-0.13473205013146153
13975.0,26248.0,-0.11055942061420757
13985.0,26254.0,-0.09124118981272983
13995.0,26228.0,-0.07677026210607475
14005.0,26220.0,-0.06685435932947291
14015.0,26220.0,-0.060958278396257025
14025.0,26209.0,-0.05835769916966336
14035.0,26199.0,-0.05819879778005356
14046.0,26193.0,-0.05955858244756597
14055.0,26203.0,-0.061501422334535594
14065.0,26197.0,-0.06312801536159457
14075.0,26206.0,-0.06361450919129139
14085.0,26214.0,-0.062241066535988175
14095.0,26224.0,-0.058410371345677274
14105.0,26216.0,-0.05165751720416539
14115.0,26225.0,-0.0416531445431341
14125.0,26241.0,-0.02820135050281195
14135.0,26242.0,-0.011233544317729402
14145.0,26248.0,0.009200334369596927
14155.0,26257.0,0.03294167214599129
14165.0,26273.0,0.05973300414112064
14175.0,26283.0,0.08922705711884367
14185.0,26279.0,0.12099419522815084
14196.0,26300.0,0.15452765366385976
14205.0,26313.0,0.18924667579115065
14215.0,26306.0,0.22449814146051594
14225.0,26315.0,0.2595573969275681
14235.0,26328.0,0.2936295706584023
14245.0,26335.0,0.32585335414328365
14255.0,26329.0,0.3553091024900838
14265.0,26345.0,0.3810326299020869
14276.0,26350.0,0.4020359433158387
14285.0,26347.0,0.4173358436453174
14295.0,26351.0,0.4259905554532893
14305.0,26366.0,0.4271438799492201
14315.0,26372.0,0.4200756091126333
14325.0,26374.0,0.40425549133133604
14335.0,26365.0,0.3793965270510845
14346.0,26383.0,0.34550279764212116
14355.0,26369.0,0.3029070542590038
14365.0,26350.0,0.2522931702816815
14375.0,26328.0,0.19469890880023674
14385.0,26300.0,0.1314961663038895
14395.0,26259.0,0.06434834254331596
14405.0,26216.0,-0.004853144195089689
14415.0,26189.0,-0.07406898042213708
14425.0,26154.0,-0.14120278315662904
14435.0,26127.0,-0.20419616303145138
14445.0,26099.0,-0.26112205807278965
14455.0,26080.0,-0.31027107601651766
14465.0,26070.0,-0.3502262669261678
14475.0,26066.0,-0.37992277297676946
14485.0,26041.0,-0.39869020587842147
14496.0,26058.0,-0.4062767577650581
14505.0,26063.0,-0.4028546722089116
14515.0,26069.0,-0.389007539342764
14525.0,26058.0,-0.3657010877541529
14535.0,26069.0,-0.3342394573261692
14545.0,26090.0,-0.29620803695287357
14555.0,26110.0,-0.2534035032791974
14565.0,26125.0,-0.20775277955941351
14575.0,26155.0,-0.1612242481220976
14585.0,26185.0,-0.11573558055143354
14595.0,26212.0,-0.07306329901294721
14605.0,26224.0,-0.03476000185132933
14615.0,26234.0,-0.0020853215826067
14625.0,26246.0,0.024044515915044286
14635.0,26248.0,0.04308559472814978
14645.0,26225.0,0.054872541468225774
14656.0,26224.0,0.05960280481209359
14665.0,26212.0,0.05780189479168305
14675.0,26201.0,0.05027417982698778
14685.0,26184.0,0.0380443025667469
14695.0,26180.0,0.02229410926053604
14705.0,26178.0,0.0042996732050904546
14715.0,26171.0,-0.014627871422820467
14725.0,26172.0,-0.03319541966570665
14736.0,26161.0,-0.050173964836659105
14745.0,26166.0,-0.06443742830276435
14755.0,26150.0,-0.07499430371989109
14765.0,26154.0,-0.0810121906288762
14775.0,26151.0,-0.08183514616038311
14785.0,26165.0,-0.07699376392931571
14795.0,26158.0,-0.06620833033953416
14805.0,26181.0,-0.04938607043436477
14816.0,26192.0,-0.02661395337842158
14825.0,26201.0,0.001851098827117842
14835.0,26203.0,0.03559251016051784
14845.0,26220.0,0.07404326872242607
14855.0,26241.0,0.1164935804936268
14865.0,26249.0,0.16209708457168784
14875.0,26247.0,0.2098757161009212
14885.0,26260.0,0.2587237754816425
14895.0,26277.0,0.3074130624586665
14905.0,26284.0,0.35460177162003537
14915.0,26275.0,0.39884958012272204
14925.0,26278.0,0.4386411490615123
14935.0,26303.0,0.47242079108729584
14945.0,26323.0,0.49864089552390867
14955.0,26327.0,0.515824525452606
14965.0,26341.0,0.522639599843837
14975.0,26363.0,0.517980148251284
14985.0,26365.0,0.5010491103503285
14995.0,26369.0,0.4714360627012232
15005.0,26376.0,0.4291824404418516
15015.0,26364.0,0.37482684711140246
15025.0,26333.0,0.3094237261617045
15035.0,26301.0,0.23453027174492197
15046.0,26250.0,0.15215946323046134
15055.0,26202.0,0.0647009058736314
15065.0,26149.0,-0.025185327263781872
15075.0,26111.0,-0.11469404150191234
15085.0,26062.0,-0.20101028916050778
15095.0,26029.0,-0.28144551560937875
15105.0,25986.0,-0.3535658748826669
15115.0,25969.0,-0.41530493782156075
15126.0,25944.0,-0.46505409375203693
15135.0,25943.0,-0.5017255668444323
15145.0,25935.0,-0.5247851104961947
15155.0,25947.0,-0.5342537599749084
15165.0,25964.0,-0.5306802414367392
15175.0,25979.0,-0.5150877225813867
15185.0,25984.0,-0.48890032523494753
15195.0,26003.0,-0.45385553488664004
15205.0,26021.0,-0.4119081392589436
15215.0,26048.0,-0.3651305442508359
15225.0,26052.0,-0.31561407566125094
15235.0,26078.0,-0.26537573834506706
15245.0,26104.0,-0.2162742607591055
15255.0,26123.0,-0.1699386212721648
15265.0,26127.0,-0.12771215853611664
15275.0,26137.0,-0.09061499193518262
15285.0,26148.0,-0.059326061699290895
15295.0,26154.0,-0.034184432754188275
15305.0,26134.0,-0.015208482018921153
15315.0,26132.0,-0.002130638725647764
15325.0,26134.0,0.0055561658442429785
15335.0,26134.0,0.00854529454022585
15345.0,26122.0,0.007661042825714575
15355.0,26119.0,0.003804657853087291
15365.0,26119.0,-0.0020952625202802022
15375.0,26122.0,-0.009125295093158903
15385.0,26113.0,-0.016420803115623835
15395.0,26118.0,-0.023189928073511678
15405.0,26129.0,-0.0287280518589996
15415.0,26131.0,-0.03242356408167135
15425.0,26136.0,-0.03375682598625452
15435.0,26144.0,-0.032295052112137235
15445.0,26149.0,-0.02768596208137721
15455.0,26148.0,-0.019652781351705284
15465.0,26157.0,-0.007992689138917448
15475.0,26160.0,0.00741993413446472
15485.0,26173.0,0.02662483566697219
15495.0,26168.0,0.04956162515953543
15505.0,26158.0,0.0760503192182757
15515.0,26166.0,0.10576837925377097
15525.0,26162.0,0.13822761017396637
15535.0,26165.0,0.17275530757921637
15545.0,26169.0,0.20848405947229137
15555.0,26183.0,0.24435412916544974
15565.0,26204.0,0.2791314192605109
15575.0,26222.0,0.3114423003332162
15585.0,26231.0,0.33982438314075303
15595.0,26236.0,0.36279059625359983
15605.0,26258.0,0.37890330480161466
15615.0,26274.0,0.3868550230590688
15625.0,26273.0,0.3855514905045992
15635.0,26286.0,0.3741917481045647
15645.0,26302.0,0.35233930888583065
15655.0,26299.0,0.3199783510169853
15665.0,26276.0,0.2775486453502271
15676.0,26247.0,0.22595372433087077
15685.0,26219.0,0.16653954311726613
15695.0,26188.0,0.10104446092009586
15705.0,26139.0,0.03152410393413002
15715.0,26111.0,-0.039743610244049564
15725.0,26080.0,-0.11036674879123892
15735.0,26045.0,-0.17795382452823957
15745.0,26013.0,-0.24022763050329102
15755.0,25992.0,-0.29513214717709557
15765.0,25977.0,-0.3409266256729523
15775.0,25963.0,-0.37626182243154965
15785.0,25963.0,-0.400234876966696
15795.0,25961.0,-0.4124209988566944
15805.0,25963.0,-0.41288163515487963
15815.0,25965.0,-0.40214997310837
15825.0,25976.0,-0.38119531326366757
15835.0,26000.0,-0.351368235939335
15845.0,26019.0,-0.31432919593553443
15855.0,26020.0,-0.27196429644917003
15865.0,26052.0,-0.22629263289955137
15875.0,26074.0,-0.17936933488764342
15885.0,26103.0,-0.13318828989468115
15895.0,26116.0,-0.08958919113813751
15905.0,26138.0,-0.05017409220595832
15915.0,26160.0,-0.016238264192458912
15925.0,26164.0,0.01128068644990899
15935.0,26160.0,0.031832366858681585
15945.0,26158.0,0.04526020998647662
15955.0,26158.0,0.05178573960251121
15965.0,26146.0,0.051973001482372064
15975.0,26133.0,0.04667669891792201
15986.0,26120.0,0.036978243024986125
15995.0,26117.0,0.024114644475406174
16005.0,26108.0,0.009405413617356351
16015.0,26094.0,-0.005817956612103843
16025.0,26093.0,-0.020276220112150318
16035.0,26093.0,-0.03279726170877225
16045.0,26094.0,-0.04235937098792242
16055.0,26095.0,-0.0481218909574822
16065.0,26096.0,-0.049443438545622095
16075.0,26106.0,-0.04588859401377328
16085.0,26125.0,-0.03722441778053673
16095.0,26124.0,-0.02340886572854408
16105.0,26136.0,-0.004573909919700873
16115.0,26154.0,0.018993772222671547
16125.0,26160.0,0.04687218728793858
16135.0,26166.0,0.07852157035331694
16145.0,26177.0,0.1132986932718617
16155.0,26185.0,0.15046754229479142
16165.0,26201.0,0.18920692371684705
16175.0,26199.0,0.22861599534445895
16185.0,26210.0,0.26771898910358616
16195.0,26221.0,0.3054708753818715
16205.0,26230.0,0.3407660910588255
16215.0,26226.0,0.3724522811312761
16225.0,26233.0,0.3993506859735679
16235.0,26244.0,0.42028479007004305
16245.0,26255.0,0.43411854030630775
16255.0,26260.0,0.4398041761420225
16265.0,26269.0,0.436437974797792
16275.0,26278.0,0.4233208190055007
16285.0,26279.0,0.40001948131658865
16295.0,26281.0,0.36642365345840133
16305.0,26282.0,0.3227931799204925
16315.0,26282.0,0.26978976317432135
16325.0,26253.0,0.2084874925270837
16335.0,26213.0,0.1403574181156198
16345.0,26174.0,0.06722392475050698
16355.0,26139.0,-0.008805518966135562
16365.0,26094.0,-0.08543232179392875
16375.0,26060.0,-0.16027375043570558
16386.0,26020.0,-0.23097755040953058
16395.0,25990.0,-0.2953365714438193
16405.0,25959.0,-0.3513958657772432
16415.0,25940.0,-0.3975452444687533
16425.0,25943.0,-0.4325912953767511
16435.0,25943.0,-0.45580471259901595
16445.0,25939.0,-0.46694144605133425
16455.0,25947.0,-0.4662386508921063
16465.0,25952.0,-0.45438769435302584
16475.0,25973.0,-0.4324868838382798
16485.0,25981.0,-0.4019770296014061
16495.0,25997.0,-0.36456356738850737
16505.0,26027.0,-0.32212931048462873
16515.0,26038.0,-0.2766420160251548
16525.0,26071.0,-0.2300611972598497
16535.0,26081.0,-0.18424885161586876
16545.0,26098.0,-0.1408885933707484
16555.0,26127.0,-0.10141703536279327
16565.0,26128.0,-0.06697051531208487
16575.0,26132.0,-0.0383496154392771
16585.0,26141.0,-0.016002909583958443
16595.0,26141.0,-2.9817189121153758e-05
16605.0,26138.0,0.009798855148219673
16615.0,26133.0,0.014004820738072573
16626.0,26122.0,0.013353486472059644
16635.0,26123.0,0.00879599856548351
16645.0,26101.0,0.0014062777955085877
16655.0,26100.0,-0.007682690883946551
16665.0,26097.0,-0.017339089919294844
16675.0,26091.0,-0.026485205534449316
16685.0,26095.0,-0.03414026386091945
16695.0,26101.0,-0.03945165311822382
16705.0,26110.0,-0.04171429485025596
16715.0,26121.0,-0.0403792658686119
16725.0,26121.0,-0.035053967955762384
16735.0,26130.0,-0.025496685674366294
16745.0,26148.0,-0.011608168744809497
16755.0,26149.0,0.00657750071848918
16765.0,26147.0,0.028900712224689703
16775.0,26154.0,0.055081427276202424
16785.0,26166.0,0.08472158085747507
16795.0,26173.0,0.11730587496586126
16805.0,26182.0,0.15220217889367132
16815.0,26194.0,0.18866252854563498
16825.0,26213.0,0.2258256825002264
16835.0,26203.0,0.2627221404490798
16845.0,26209.0,0.29828260037331866
16855.0,26219.0,0.3313515185489528
16865.0,26238.0,0.36070813103264454
16875.0,26233.0,0.38509677742986104
16885.0,26235.0,0.4032669923909978
16895.0,26246.0,0.4140230293623639
16905.0,26266.0,0.41628219298814595
16915.0,26268.0,0.40914022025465274
16925.0,26276.0,0.39193988115533696
16935.0,26282.0,0.36433733470235385
16945.0,26293.0,0.3263601148906604
16955.0,26283.0,0.2784502566957293
16965.0,26251.0,0.2214859967080086
16975.0,26232.0,0.15677677173775167
16985.0,26192.0,0.08602915389123977
16995.0,26149.0,0.011284659708349725
17005.0,26110.0,-0.06516689847038919
17015.0,26070.0,-0.14089265051606642
17025.0,26035.0,-0.21343310359927098
17035.0,26000.0,-0.2804218425193678
17045.0,25973.0,-0.33970076654345127
17055.0,25949.0,-0.3894237048979308
17065.0,25947.0,-0.4281421928189325
17075.0,25928.0,-0.4548686802000422
17085.0,25932.0,-0.4691143210268014
17095.0,25944.0,-0.47090024354234417
17105.0,25947.0,-0.4607427558947047
17115.0,25957.0,-0.43961447965170625
17125.0,25981.0,-0.4088845360578679
17135.0,26000.0,-0.3702414888623499
17145.0,26023.0,-0.32560337379059023
17155.0,26044.0,-0.27701989688651163
17165.0,26061.0,-0.22657216167304084
17175.0,26088.0,-0.17627492995316602
17185.0,26114.0,-0.1279858835561442
17195.0,26127.0,-0.0833260791484542
17205.0,26140.0,-0.04361559096409605
17215.0,26159.0,-0.009827602707057131
17225.0,26162.0,0.017437013468567086
17235.0,26154.0,0.03795378359721829
17245.0,26158.0,0.05185786617863634
17255.0,26150.0,0.05960862056588153
17265.0,26137.0,0.06193915754082088
17275.0,26128.0,0.059795367207345344
17285.0,26124.0,0.054269483460931106
17295.0,26121.0,0.04653340413098765
17305.0,26122.0,0.03777628313058485
17315.0,26118.0,0.02914956852923524
17325.0,26117.0,0.021721363506351867
17335.0,26120.0,0.016441112919080406
17345.0,26130.0,0.014114991691184275
17355.0,26129.0,0.015391600880080188
17365.0,26141.0,0.020756697742956118
17375.0,26154.0,0.030535075563349286
17385.0,26168.0,0.04489731901765302
17395.0,26174.0,0.06386872940099846
17405.0,26176.0,0.0873376058551655
17416.0,26189.0,0.11506083107554785
17425.0,26194.0,0.14666603520455798
17435.0,26193.0,0.18165073048060557
17445.0,26211.0,0.21937960066084003
17455.0,26222.0,0.25908175987788334
17465.0,26229.0,0.2998499470066094
17475.0,26232.0,0.3406433317227852
17485.0,26247.0,0.38029560535222695
17495.0,26254.0,0.41753035029726193
17505.0,26263.0,0.4509855831457781
17515.0,26271.0,0.4792487129152183
17525.0,26283.0,0.5009023922642513
17535.0,26287.0,0.5145809379835471
17545.0,26303.0,0.519035986478233
17555.0,26316.0,0.5132088148662591
17566.0,26318.0,0.49630531031263897
17575.0,26327.0,0.4678681633606394
17585.0,26334.0,0.4278399672767157
17595.0,26328.0,0.37661051772529736
17605.0,26306.0,0.3150416001829154
17615.0,26278.0,0.24446352514787106
17625.0,26231.0,0.16664016245663021
17635.0,26178.0,0.08370281603659972
17646.0,26138.0,-0.0019428936733989887
17655.0,26103.0,-0.08772989537001558
17665.0,26047.0,-0.1710536243578758
17675.0,26019.0,-0.2493984326862061
17685.0,25996.0,-0.32045821576482636
17695.0,25976.0,-0.38224383714246524
17705.0,25944.0,-0.43317166221442294
17715.0,25938.0,-0.47212932484121484
17725.0,25942.0,-0.4985159375770899
17735.0,25940.0,-0.5122551478139789
17745.0,25949.0,-0.5137814426932156
17755.0,25956.0,-0.5040020492095971
17765.0,25965.0,-0.48423780513295034
17775.0,25989.0,-0.456146758221144
17785.0,25993.0,-0.4216345292962482
17795.0,26015.0,-0.3827557310890424
17805.0,26045.0,-0.3416107980137464
17815.0,26066.0,-0.30024271041294187
17825.0,26086.0,-0.2605386633449434
17835.0,26099.0,-0.22414216326325068
17845.0,26119.0,-0.19238053235506167
17855.0,26125.0,-0.1662116267996594
17865.0,26132.0,-0.14619238677315335
17875.0,26127.0,-0.1324706209930518
17885.0,26125.0,-0.12479990136564988
17895.0,26117.0,-0.12257573722176363
17905.0,26112.0,-0.12488974173513429
17915.0,26099.0,-0.130597544515931
17925.0,26098.0,-0.13839568432098992
17935.0,26092.0,-0.14690256308972807
17945.0,26078.0,-0.15473878655737938
17955.0,26073.0,-0.16060259804146196
17965.0,26079.0,-0.1633363037750622
17975.0,26075.0,-0.16197996519774563
17985.0,26081.0,-0.15580966553662381
17995.0,26099.0,-0.14435898107150355
18005.0,26120.0,-0.12742360499799502
18015.0,26121.0,-0.10505062761735817
18025.0,26146.0,-0.07751534873820969
18036.0,26167.0,-0.0452889464985843
18045.0,26195.0,-0.00900035264821288
18055.0,26201.0,0.03060390439755133
18065.0,26226.0,0.07269788488218341
18075.0,26244.0,0.11640914109495155
18085.0,26250.0,0.1608441824058512
18095.0,26258.0,0.20510540596509344
18106.0,26265.0,0.24829970040891963
18115.0,26277.0,0.289540483508891
18125.0,26280.0,0.3279459816116926
18135.0,26285.0,0.3626368419070651
18145.0,26306.0,0.3927361019546758
18155.0,26309.0,0.41737414328975453
18165.0,26316.0,0.4357003009367897
18176.0,26321.0,0.44690175726571335
18185.0,26323.0,0.4502297864001426
18195.0,26324.0,0.445033084149912
18205.0,26324.0,0.4307974131412365
18215.0,26327.0,0.40719011354154744
18225.0,26333.0,0.3741071497785537
18235.0,26334.0,0.3317191636684709
18245.0,26334.0,0.2805116686496191
18256.0,26319.0,0.2213135969114337
18265.0,26312.0,0.1553084098455159
18275.0,26269.0,0.08402301691524271
18285.0,26232.0,0.009291785519970482
18295.0,26195.0,-0.06680406156626313
18305.0,26166.0,-0.1420181162776503
18315.0,26130.0,-0.21403586059221966
18325.0,26098.0,-0.28058086149118117
18335.0,26071.0,-0.339523745820655
18345.0,26044.0,-0.38898749591844706
18355.0,26027.0,-0.4274426239976755
18365.0,26009.0,-0.4537861730898165
18375.0,26023.0,-0.46739929975456196
18385.0,26018.0,-0.468179629103325
18395.0,26018.0,-0.456546581155196
18406.0,26040.0,-0.43341960775130267
18415.0,26062.0,-0.4001703211806597
18425.0,26082.0,-0.3585506637848632
18435.0,26116.0,-0.3106009592201385
18445.0,26147.0,-0.25854318664863923
18455.0,26184.0,-0.20466585122653974
18465.0,26211.0,-0.15120764873600265
18475.0,26233.0,-0.10024749242677981
18485.0,26257.0,-0.05360791924578669
18495.0,26268.0,-0.012777509144929814
18505.0,26268.0,0.02114382361395498
18515.0,26272.0,0.04747485515164544
18525.0,26286.0,0.0659587837663846
18535.0,26278.0,0.07674666559375724
18545.0,26258.0,0.0803612350186956
18556.0,26252.0,0.07764458981360754
18565.0,26258.0,0.06969465138580835
18575.0,26248.0,0.057796018225983105
18585.0,26247.0,0.04334989961880113
18595.0,26247.0,0.027806347466870315
18605.0,26252.0,0.012601023913995181
18615.0,26239.0,-0.0009020239604683338
18626.0,26239.0,-0.011460738719555247
18635.0,26238.0,-0.01799776559281135
18645.0,26243.0,-0.019634414935304902
18655.0,26237.0,-0.015714913540343597
18665.0,26243.0,-0.005820395958149974
18675.0,26266.0,0.01022767628713473
18685.0,26272.0,0.03237454767806633
18695.0,26302.0,0.06034844651646483
18705.0,26323.0,0.09368362272519286
18715.0,26342.0,0.13174677145904962
18725.0,26351.0,0.17376316594088667
18735.0,26374.0,0.2188394153953035
18745.0,26385.0,0.2659811193181389
18755.0,26394.0,0.31410501756759734
18765.0,26403.0,0.36204627738825135
18775.0,26416.0,0.40856262905459045
18785.0,26426.0,0.4523379702336682
18795.0,26427.0,0.4919883827908985
18805.0,26419.0,0.5260735482314973
18815.0,26432.0,0.5531168867728832
18825.0,26439.0,0.5716380029312427
18835.0,26438.0,0.5802001801517183
18845.0,26456.0,0.5774737102497887
18855.0,26463.0,0.5623136323720163
18865.0,26478.0,0.5338482168996174
18875.0,26498.0,0.4915720738142876
18885.0,26506.0,0.43543532893850456
18895.0,26506.0,0.3659183684081922
18905.0,26482.0,0.284080926303457
18916.0,26439.0,0.19157563828915267
18925.0,26392.0,0.09061979734739149
18935.0,26319.0,-0.01607586968621404
18945.0,26268.0,-0.12541729580602362
18955.0,26214.0,-0.23406759716792502
18965.0,26173.0,-0.3386071550435372
18975.0,26112.0,-0.4357020419331039
18985.0,26071.0,-0.5222701870299709
18995.0,26040.0,-0.5956350325053115
19005.0,26026.0,-0.6536569133963377
19015.0,25999.0,-0.6948340500524479
19025.0,26003.0,-0.718367607103177
19035.0,26019.0,-0.7241877576138154
19045.0,26037.0,-0.7129402148186591
19055.0,26039.0,-0.6859356215973087
19065.0,26077.0,-0.6450665259500707
19075.0,26106.0,-0.5926976587925145
19085.0,26141.0,-0.5315358845646936
19095.0,26170.0,-0.46448729077026935
19105.0,26209.0,-0.394509639909018
19115.0,26248.0,-0.3244683205090231
19125.0,26270.0,-0.25700354215600035
19135.0,26297.0,-0.19441596497425576
19146.0,26309.0,-0.1385766847922391
19155.0,26331.0,-0.09086547913130356
19165.0,26322.0,-0.052139084784304644
19175.0,26330.0,-0.02272927707949125
19185.0,26328.0,-0.002468507580157683
19195.0,26325.0,0.009260845868530876
19205.0,26305.0,0.013458542647704432
19215.0,26308.0,0.01142540385132757
19225.0,26302.0,0.004675173792069945
19235.0,26305.0,-0.005154811597137152
19245.0,26296.0,-0.01638950071212724
19255.0,26293.0,-0.027395280776220894
19265.0,26300.0,-0.036649963673788984
19275.0,26291.0,-0.042801689893039015
19285.0,26296.0,-0.04471550655266861
19296.0,26301.0,-0.04150698892947813
19305.0,26312.0,-0.03256273878488233
19315.0,26312.0,-0.017548219654820604
19325.0,26333.0,0.0035959259861776164
19335.0,26347.0,0.030667500612252
19345.0,26371.0,0.06322428942813242
19355.0,26385.0,0.10061078779654477
19366.0,26404.0,0.14198691177265826
19375.0,26419.0,0.18635568852662004
19385.0,26418.0,0.23258776995796143
19395.0,26422.0,0.2794419966068707
19405.0,26439.0,0.3255830434077123
19415.0,26444.0,0.36959864308976825
19425.0,26436.0,0.4100192633901172
19435.0,26439.0,0.44534303106461665
19445.0,26445.0,0.47406902876796053
19455.0,26458.0,0.4947421578388701
19465.0,26475.0,0.5060114091316927
19475.0,26492.0,0.5067007517224746
19485.0,26509.0,0.495888893846315
19495.0,26516.0,0.4729916526704562
19505.0,26529.0,0.43783900443112816
19515.0,26525.0,0.39073816564911656
19525.0,26529.0,0.3325141035520839
19535.0,26489.0,0.26451964820267504
19545.0,26444.0,0.18860938287750018
19555.0,26399.0,0.10707530052978252
19565.0,26335.0,0.022547207800784137
19575.0,26276.0,-0.062134590966694846
19585.0,26238.0,-0.14406361127234354
19595.0,26204.0,-0.22041626896854805
19605.0,26175.0,-0.2885940898347011
19615.0,26156.0,-0.34634973532589547
19625.0,26152.0,-0.39189024865259886
19635.0,26140.0,-0.4239534223918993
19645.0,26129.0,-0.44185544267047444
19655.0,26144.0,-0.44550956388906354
19665.0,26153.0,-0.43541651954958926
19675.0,26167.0,-0.4126285197670584
19685.0,26167.0,-0.37869007900638696
19695.0,26182.0,-0.3355594895054367
19705.0,26205.0,-0.28551423854170466
19715.0,26224.0,-0.23104321170488654
19725.0,26253.0,-0.1747290185342787
19736.0,26280.0,-0.11912484237980392
19745.0,26311.0,-0.06663120046675813
19755.0,26335.0,-0.01937876404082748
19765.0,26362.0,0.02087614030480477
19775.0,26383.0,0.05283672208343602
19785.0,26393.0,0.07572545991502952
19795.0,26387.0,0.08931327891758294
19805.0,26380.0,0.09391506253288369
19815.0,26367.0,0.09035127452304005
19825.0,26330.0,0.07987854751360295
19835.0,26313.0,0.06409487613407325
19845.0,26284.0,0.044827458080351525
19855.0,26268.0,0.02401276530316982
19865.0,26251.0,0.003578551505627778
19875.0,26232.0,-0.01466350225480086
19885.0,26243.0,-0.029107318949434875
19895.0,26259.0,-0.038419000028042036
19905.0,26272.0,-0.041578364977226834
19915.0,26276.0,-0.03789698091536917
19925.0,26297.0,-0.027016743226541892
19935.0,26312.0,-0.00889383283159659
19945.0,26313.0,0.016227207439600325
19955.0,26328.0,0.047844900767833064
19965.0,26336.0,0.08523436805361498
19975.0,26350.0,0.12748088035811048
19985.0,26357.0,0.1735123055969932
19995.0,26358.0,0.2221300023712057
20005.0,26389.0,0.272038528261891
20015.0,26399.0,0.3218751105275738
20025.0,26405.0,0.37023957056071494
20036.0,26415.0,0.41572487621473303
20045.0,26447.0,0.45694861586234686
20055.0,26452.0,0.49258576829236284
20065.0,26470.0,0.5214022536091494
20075.0,26470.0,0.5422876941702932
20085.0,26468.0,0.5542857162596273
20095.0,26459.0,0.5566208901357942
20105.0,26447.0,0.5487224771365115
20115.0,26446.0,0.5302460534493987
20125.0,26426.0,0.5010943083663245
20135.0,26425.0,0.46143773632125995
20145.0,26423.0,0.4117348702121908
20155.0,26428.0,0.3527501989786266
20165.0,26413.0,0.28556591710112483
20175.0,26398.0,0.21158195832033794
20185.0,26361.0,0.1324986095282971
20195.0,26332.0,0.05027770015187781
20205.0,26269.0,-0.03291877221441221
20215.0,26231.0,-0.11481041552078028
20225.0,26188.0,-0.19309527642891522
20235.0,26153.0,-0.2655542304162555
20245.0,26119.0,-0.3301549028740963
20255.0,26093.0,-0.385147711305561
20265.0,26080.0,-0.42914758069156933
20275.0,26073.0,-0.4611961628327133
20285.0,26064.0,-0.48080119065906657
20295.0,26073.0,-0.48795157286886354
20305.0,26083.0,-0.4831085148334445
20315.0,26090.0,-0.4671743905169108
20325.0,26100.0,-0.4414423079903912
20335.0,26113.0,-0.4075298842026097
20346.0,26128.0,-0.3673006337947602
20355.0,26152.0,-0.32277618944962
20365.0,26171.0,-0.2760427631774441
20375.0,26195.0,-0.22915576013030586
20385.0,26226.0,-0.1840469744531323
20395.0,26241.0,-0.14243919270180172
20405.0,26248.0,-0.10577314954459335
20415.0,26266.0,-0.07515113167687393
20425.0,26262.0,-0.05130002061924997
20435.0,26271.0,-0.03455492238474483
20445.0,26258.0,-0.024863191982583844
20455.0,26259.0,-0.021807421832471557
20465.0,26254.0,-0.024644812273870678
20475.0,26239.0,-0.03235958984024437
20485.0,26243.0,-0.04372484263215845
20495.0,26227.0,-0.05737009218401912
20505.0,26224.0,-0.07185106038990324
20515.0,26208.0,-0.08571832742863156
20525.0,26212.0,-0.0975816901979762
20535.0,26211.0,-0.10616722765365656
20545.0,26210.0,-0.11036480114503167
20555.0,26220.0,-0.10926482103074976
20565.0,26222.0,-0.10218407227679886
20575.0,26240.0,-0.08868108490629177
20585.0,26244.0,-0.06856212735974213
20595.0,26266.0,-0.04187937159799698
20605.0,26282.0,-0.008923050778812152
20615.0,26291.0,0.029790438672784744
20625.0,26309.0,0.07353265644806146
20636.0,26323.0,0.1213782163356794
20645.0,26340.0,0.17222044281167306
20655.0,26348.0,0.224787785392035
20665.0,26366.0,0.2776616825965838
20675.0,26370.0,0.32929714474555566
20685.0,26388.0,0.3780478350759543
20695.0,26395.0,0.4221976363733882
20705.0,26409.0,0.46000049155102285
20715.0,26423.0,0.48972969518445897
20725.0,26431.0,0.5097368572479128
20735.0,26434.0,0.5185196303620893
20745.0,26461.0,0.5147962097891651
20755.0,26467.0,0.4975833941012756
20765.0,26465.0,0.4662733011953678
20775.0,26479.0,0.42070227850058467
20785.0,26478.0,0.3612048935326623
20795.0,26450.0,0.28864583186196785
20805.0,26426.0,0.20442309488262503
20815.0,26371.0,0.1104380170706518
20825.0,26320.0,0.009031299509617535
20835.0,26258.0,-0.09711160919615422
20845.0,26204.0,-0.20507879322935244
20855.0,26170.0,-0.3118643865037221
20865.0,26126.0,-0.41450535317948844
20875.0,26084.0,-0.510213735086658
20885.0,26060.0,-0.5964972642692201
20895.0,26034.0,-0.6712625395174092
20905.0,26014.0,-0.7328961989410321
20915.0,26002.0,-0.7803210283246074
20925.0,26003.0,-0.8130254087699232
20935.0,25997.0,-0.8310658743438064
20945.0,26008.0,-0.835043964871457
20955.0,26009.0,-0.8260597420426545
20965.0,26032.0,-0.8056450687614886
20975.0,26041.0,-0.7756802572651823
20985.0,26069.0,-0.7382982042360451
20995.0,26082.0,-0.6957805919611633
21005.0,26105.0,-0.6504509486996044
21015.0,26133.0,-0.6045692633840196
21025.0,26152.0,-0.5602326662906693
21035.0,26167.0,-0.5192866051723188
21045.0,26181.0,-0.4832506126444373
21055.0,26197.0,-0.4532618253435067
21065.0,26202.0,-0.43003826438751397
21075.0,26201.0,-0.4138629300910813
21085.0,26203.0,-0.4045887336490814
21095.0,26196.0,-0.4016629786336288
21105.0,26191.0,-0.4041688806578342
21115.0,26178.0,-0.4108807445600954
21125.0,26181.0,-0.42032881754138646
21135.0,26169.0,-0.43086958607601733
21145.0,26174.0,-0.44075758050851616
21155.0,26175.0,-0.4482154635670754
21165.0,26185.0,-0.45150009990624085
21175.0,26187.0,-0.4489633668790136
21185.0,26198.0,-0.4391073939203551
21195.0,26206.0,-0.4206343478015518
21205.0,26222.0,-0.39249087591441073
21215.0,26234.0,-0.3539071964551659
21225.0,26256.0,-0.3044306960416895
21235.0,26264.0,-0.24395366083081976
21245.0,26283.0,-0.17273425668002718
21255.0,26312.0,-0.09140906047082453
21265.0,26338.0,-0.0009948057652656073
21275.0,26378.0,0.09712284462387212
21285.0,26416.0,0.2012148059321362
21295.0,26466.0,0.3092484931222692
21305.0,26504.0,0.41894102777526737
21315.0,26540.0,0.5278235113186839
21325.0,26589.0,0.6333136674245969
21335.0,26610.0,0.7327942483210333
21345.0,26621.0,0.8236949644123096
21355.0,26651.0,0.9035766075305485
21365.0,26677.0,0.9702173493436348
21375.0,26705.0,1.0217014583106372
21385.0,26731.0,1.0565091217485567
21395.0,26766.0,1.073603686714543
21405.0,26785.0,1.0725104173657134
21415.0,26808.0,1.053379011169066
21425.0,26811.0,1.017020968545327
21435.0,26789.0,0.9649130610973434
21445.0,26750.0,0.8991601218695938
21455.0,26701.0,0.822414403847176
21465.0,26629.0,0.7377541349002185
21475.0,26568.0,0.6485293289636344
21485.0,26514.0,0.5581873105779254
21495.0,26463.0,0.47009286444215104
21505.0,26426.0,0.38735791550886833
21515.0,26410.0,0.312693630927932
21525.0,26393.0,0.24829455235406458
21535.0,26389.0,0.195760309259168
21545.0,26393.0,0.15605639074124658
21555.0,26394.0,0.12951210429089946
21565.0,26402.0,0.11585140579934598
21575.0,26417.0,0.11425072619828272
21585.0,26408.0,0.1234171987442939
21595.0,26424.0,0.14168077688214564
21605.0,26429.0,0.16709459843587665
21615.0,26444.0,0.19753902639464163
21625.0,26445.0,0.23082541058782166
21635.0,26457.0,0.2647960100808126
21645.0,26462.0,0.29741719264975625
21655.0,26494.0,0.32686368696345275
21665.0,26507.0,0.35159155785012
21675.0,26510.0,0.3703966471538639
21685.0,26520.0,0.38245460634618705
21695.0,26518.0,0.3873393454329451
21705.0,26510.0,0.38501827567984404
21715.0,26489.0,0.3758243655279971
21725.0,26474.0,0.3604068738731328
21735.0,26448.0,0.3396647038120464
21745.0,26420.0,0.3146680699075768
21755.0,26402.0,0.28657527545875755
21765.0,26388.0,0.2565518025673682
21775.0,26367.0,0.2256983617925272
21785.0,26353.0,0.19499313586511519
21795.0,26353.0,0.1652518605563675
21805.0,26352.0,0.13710774442141851
21815.0,26359.0,0.11101106668690004
21825.0,26355.0,0.08724580857896751
21835.0,26366.0,0.06595874229524482
21845.0,26372.0,0.04719538776245268
21855.0,26357.0,0.030936859147028477
21865.0,26361.0,0.017131898346909948
21875.0,26348.0,0.005719643365121961
21885.0,26341.0,-0.0033595202461985008
21895.0,26325.0,-0.010166014614835111
21905.0,26313.0,-0.014775483310750948
21915.0,26292.0,-0.017303429236158078
21925.0,26280.0,-0.017936468820353397
21935.0,26251.0,-0.016965393292254438
21945.0,26244.0,-0.014814338414007007
21955.0,26236.0,-0.012059970069672937
21965.0,26248.0,-0.009435232623570336
21975.0,26254.0,-0.007814295153941449
21985.0,26252.0,-0.008178331113448114
21995.0,26269.0,-0.01156442263315519
22005.0,26281.0,-0.01900159167174904
22015.0,26277.0,-0.03143925039821404
22025.0,26274.0,-0.04967439780443048
22035.0,26274.0,-0.0742839444233198
22045.0,26271.0,-0.10556768549651875
22055.0,26251.0,-0.14350664404794689
22065.0,26225.0,-0.18774079473200309
22075.0,26200.0,-0.23756868335657097
22085.0,26163.0,-0.29196914368407934
22095.0,26139.0,-0.34964308939751976
22105.0,26101.0,-0.4090718355685933
22115.0,26080.0,-0.4685875930945342
22125.0,26049.0,-0.526451536450707
22135.0,26027.0,-0.5809350224308222
22145.0,25999.0,-0.6303999111932919
22155.0,25975.0,-0.6733742258849548
22165.0,25968.0,-0.7086195183798739
22175.0,25958.0,-0.7351866824209554
22185.0,25936.0,-0.7524578990547883
22195.0,25931.0,-0.7601733471210775
22205.0,25939.0,-0.7584415837969742
22215.0,25929.0,-0.7477326799678063
22225.0,25930.0,-0.7288539708863232
22235.0,25950.0,-0.7029090709199091
22245.0,25968.0,-0.6712413680858359
22255.0,25982.0,-0.6353643838550611
22265.0,25999.0,-0.5968830131934196
22275.0,26015.0,-0.5574105694969453
22285.0,26045.0,-0.5184865707363331
22295.0,26059.0,-0.48150017563482406
22305.0,26060.0,-0.44762434722931965
22315.0,26068.0,-0.4177653288923623
22325.0,26071.0,-0.39253034318511254
22335.0,26066.0,-0.37221438902500825
22345.0,26051.0,-0.35680544425915905
22355.0,26046.0,-0.34600597033813363
22365.0,26044.0,-0.3392671635374732
22375.0,26033.0,-0.3358316222297717
22385.0,26032.0,-0.33478035412795476
22395.0,26023.0,-0.3350806983036145
22405.0,26038.0,-0.33563234478459625
22415.0,26033.0,-0.33530951435435613
22425.0,26034.0,-0.3329986176266558
22435.0,26039.0,-0.3276316896956992
22445.0,26047.0,-0.31821617074295144
22455.0,26051.0,-0.3038616670704921
22465.0,26058.0,-0.2838045604677912
22475.0,26058.0,-0.2574313514612469
22485.0,26074.0,-0.22430113348225972
22495.0,26080.0,-0.1841669386955392
22505.0,26089.0,-0.13699528364685568
22515.0,26094.0,-0.08298292678737598
22525.0,26122.0,-0.022569306116296498
22535.0,26143.0,0.043557241846517075
22545.0,26171.0,0.11446086502712012
22555.0,26193.0,0.18896741812846982
22565.0,26222.0,0.2656809174708086
22575.0,26225.0,0.34300650511647734
22585.0,26242.0,0.4191797908867716
22595.0,26259.0,0.4923036077900073
22605.0,26269.0,0.5603942461991523
22615.0,26268.0,0.6214394017448646
22625.0,26305.0,0.6734696394869475
22635.0,26332.0,0.7146442028566181
22645.0,26374.0,0.7433495385089536
22655.0,26395.0,0.7583050018219973
22665.0,26422.0,0.7586666330970775
22675.0,26444.0,0.7441180469333117
22685.0,26443.0,0.7149372056890169
22695.0,26412.0,0.6720288062408014
22705.0,26376.0,0.6169147855219611
22715.0,26336.0,0.5516802955060164
22725.0,26278.0,0.4788779657073247
22735.0,26223.0,0.4013976966411243
22746.0,26172.0,0.32231237919909483
22755.0,26134.0,0.2447119553390165
22765.0,26087.0,0.17153869526573456
22775.0,26060.0,0.1054354914876629
22785.0,26036.0,0.048617141474250856
22795.0,26030.0,0.002772379157572438
22805.0,26008.0,-0.0309983000004691
22815.0,26026.0,-0.05220685977007729
22825.0,26038.0,-0.06096447959525881
22835.0,26046.0,-0.05793401723428087
22845.0,26058.0,-0.04425390505065823
22855.0,26083.0,-0.021440661283334564
22865.0,26103.0,0.008722488746874948
22875.0,26120.0,0.044303232707409684
22885.0,26146.0,0.08333624506789657
22896.0,26162.0,0.12393032271414468
22905.0,26181.0,0.1643600733445299
22915.0,26187.0,0.20313680051417113
22925.0,26193.0,0.2390548226393367
22935.0,26186.0,0.27121161236213975
22945.0,26184.0,0.29900262569682035
22955.0,26173.0,0.32209410091868673
22965.0,26171.0,0.3403790046000151
22975.0,26171.0,0.3539223445110485
22985.0,26147.0,0.3629022050372
22995.0,26151.0,0.3675525583835709
23005.0,26145.0,0.36811362734622055
23015.0,26162.0,0.36479482998771934
23025.0,26151.0,0.35775343240950574
23035.0,26168.0,0.347089543583075
23045.0,26173.0,0.3328560550180718
23055.0,26173.0,0.315080638892255
23065.0,26170.0,0.2937957647609366
23075.0,26171.0,0.26907224723590345
23085.0,26175.0,0.24105208263397565
23095.0,26172.0,0.2099765084559043
23105.0,26152.0,0.1762051419915058
23115.0,26137.0,0.14022257023950419
23125.0,26122.0,0.10263040129828323
23135.0,26095.0,0.06412484622118783
23145.0,26065.0,0.0254615690539254
23155.0,26040.0,-0.012588994230068783
23165.0,26021.0,-0.049291189900335486
23175.0,26003.0,-0.08399311191197852
23185.0,25982.0,-0.11616981682782511
23195.0,25960.0,-0.1454564656416585
23205.0,25973.0,-0.1716678141300333
23215.0,25974.0,-0.19480158582818805
23226.0,25974.0,-0.2150255062745659
23235.0,25978.0,-0.23265043339914823
23245.0,25975.0,-0.24809355949713358
23255.0,25974.0,-0.2618358424210986
23265.0,25980.0,-0.2743774498399658
23275.0,25975.0,-0.2861946290681575
23285.0,25976.0,-0.2977011639047017
23295.0,25980.0,-0.3092172816014589
23305.0,25960.0,-0.3209483649651272
23315.0,25954.0,-0.332974981758449
23325.0,25947.0,-0.3452543932059187
23335.0,25936.0,-0.35763225744414257
23346.0,25923.0,-0.36986241424398697
23355.0,25907.0,-0.38163227186005855
23365.0,25874.0,-0.39259097181922137
23375.0,25844.0,-0.4023775111331705
23385.0,25820.0,-0.4106467534492953
23395.0,25796.0,-0.41709236213533457
23405.0,25782.0,-0.4214664512078366
23415.0,25770.0,-0.42359598725828057
23425.0,25755.0,-0.4233959259709944
23435.0,25761.0,-0.42087893597668397
23445.0,25757.0,-0.41616141075855695
23455.0,25780.0,-0.40946531487106125
23465.0,25793.0,-0.40111527392424834
23475.0,25818.0,-0.3915302188600737
23485.0,25854.0,-0.3812088531306554
23495.0,25885.0,-0.37070824322299095
23505.0,25906.0,-0.36061495161676294
23515.0,25929.0,-0.35150841782019165
23525.0,25958.0,-0.3439171063039458
23535.0,25985.0,-0.33826980609357643
23545.0,25996.0,-0.33484716751560734
23555.0,25978.0,-0.33374047627842685
23565.0,25985.0,-0.33482400576180876
23575.0,25970.0,-0.3377443082264207
23585.0,25952.0,-0.3419266034309163
23595.0,25952.0,-0.3465962557764049
23605.0,25945.0,-0.35081201442606397
23615.0,25959.0,-0.35350732455700773
23625.0,25955.0,-0.35353684236581606
23635.0,25961.0,-0.34972658302740145
23645.0,25961.0,-0.34092685397237377
23655.0,25955.0,-0.3260669294157833
23665.0,25956.0,-0.3042095826374695
23675.0,25978.0,-0.27460261260293295
23685.0,26001.0,-0.23672422327770526
23695.0,26006.0,-0.19032012605121015
23705.0,26018.0,-0.13543157561325642
23715.0,26032.0,-0.07241361831520662
23725.0,26045.0,-0.001941714376194952
23735.0,26070.0,0.07499600489383486
23745.0,26107.0,0.1571234775917905
23755.0,26170.0,0.24291977970457376
23765.0,26207.0,0.3306791880442165
23775.0,26271.0,0.41858353795668934
23785.0,26310.0,0.5047795979412887
23795.0,26329.0,0.5874533116334981
23805.0,26362.0,0.6648937294609688
23815.0,26376.0,0.7355419538164413
23825.0,26393.0,0.7980232927969867
23835.0,26386.0,0.8511630423705345
23845.0,26397.0,0.8939881517105112
23856.0,26399.0,0.9257187294819457
23865.0,26392.0,0.9457542887349192
23875.0,26377.0,0.9536596146871552
23885.0,26389.0,0.9491548741022564
23895.0,26394.0,0.932114000930705
23905.0,26391.0,0.9025735140838226
23915.0,26378.0,0.8607510896843286
23925.0,26377.0,0.8070711377488343
23935.0,26374.0,0.7421938019594109
23945.0,26367.0,0.6670430411775874
23955.0,26351.0,0.5828282178722904
23965.0,26311.0,0.4910528746766076
23975.0,26285.0,0.39350520967025365
23985.0,26242.0,0.29222703316839244
23995.0,26184.0,0.18946064523147751
24005.0,26137.0,0.08757559370374013
24015.0,26093.0,-0.011020207093886604
24025.0,26057.0,-0.10397857385123947
24035.0,26017.0,-0.1891114467873822
24045.0,25979.0,-0.26448722567972655
24055.0,25953.0,-0.3285172617745794
24065.0,25941.0,-0.3800270796603723
24075.0,25923.0,-0.4183077563197976
24085.0,25907.0,-0.4431444507642819
24095.0,25912.0,-0.45482064143822076
24105.0,25913.0,-0.45409773530496306
24115.0,25936.0,-0.44217076011340267
24125.0,25954.0,-0.4206022898353073
24135.0,25967.0,-0.39123851065528426
24145.0,25991.0,-0.3561127925678516
24155.0,26022.0,-0.31734275291578545
24165.0,26049.0,-0.27702700678209075
24175.0,26053.0,-0.23714813521586606
24185.0,26068.0,-0.199488163237909
24195.0,26071.0,-0.1655611927315363
24205.0,26079.0,-0.13656544379229493
24215.0,26086.0,-0.11335506692584962
24225.0,26073.0,-0.09643098130445607
24235.0,26063.0,-0.08594906154797932
24245.0,26070.0,-0.08174273888284034
24255.0,26065.0,-0.08335605085800309
24265.0,26070.0,-0.0900833660063586
24275.0,26070.0,-0.10101324446718497
24285.0,26063.0,-0.11507510720315378
24295.0,26053.0,-0.1310879644503662
24305.0,26042.0,-0.14781028511819244
24315.0,26041.0,-0.16398943069205485
24326.0,26043.0,-0.17840867820409068
24335.0,26035.0,-0.1899302747943433
24345.0,26032.0,-0.19753379821844755
24355.0,26022.0,-0.2003494355879036
24365.0,26035.0,-0.1976854478131396
24375.0,26030.0,-0.18904880703536264
24385.0,26049.0,-0.174158361678729
24395.0,26062.0,-0.1529507007521705
24405.0,26060.0,-0.12557970591728457
24415.0,26071.0,-0.09241111399399865
24425.0,26093.0,-0.054012925300309385
24435.0,26104.0,-0.011141826959168469
24446.0,26119.0,0.035274147233249405
24455.0,26139.0,0.0841561101774795
24465.0,26148.0,0.1342973735474706
24475.0,26154.0,0.18438881954680256
24485.0,26170.0,0.23304692230565288
24495.0,26180.0,0.27884542680249613
24505.0,26199.0,0.32035190073949654
24515.0,26218.0,0.35616974636798343
24525.0,26220.0,0.38498513219418673
24535.0,26223.0,0.4056173783526257
24545.0,26243.0,0.41707111421054904
24555.0,26246.0,0.4185885515599209
24566.0,26256.0,0.40969954368473727
24575.0,26271.0,0.39026585277788955
24585.0,26259.0,0.3605150104094891
24595.0,26255.0,0.3210587509104108
24605.0,26237.0,0.27289156402478815
24615.0,26200.0,0.21736653270319242
24625.0,26169.0,0.15614793845442232
24635.0,26127.0,0.09114282666600154
24645.0,26086.0,0.02441634808929678
24655.0,26054.0,-0.04190242714770584
24665.0,26036.0,-0.10571674637389532
24675.0,26005.0,-0.1650534976592292
24686.0,26002.0,-0.21814425269835425
24695.0,25993.0,-0.2634926212702257
24705.0,25972.0,-0.29992636003379275
24715.0,25966.0,-0.32663404570529814
24725.0,25957.0,-0.34318648642472865
24735.0,25952.0,-0.3495427306621584
24745.0,25966.0,-0.34604048472810156
24755.0,25962.0,-0.33337130846123497
24765.0,25975.0,-0.3125418142577991
24775.0,25977.0,-0.2848227083633281
24785.0,25988.0,-0.2516875876845772
24795.0,26009.0,-0.21474325607272787
24806.0,26039.0,-0.17565357712001514
24815.0,26060.0,-0.13605994590381892
24825.0,26076.0,-0.09750293922148776
24835.0,26091.0,-0.06135044740533935
24845.0,26114.0,-0.028737071563176644
24855.0,26125.0,-0.000518551086086984
24865.0,26130.0,0.022755767105181846
24875.0,26133.0,0.04085021569374799
24885.0,26123.0,0.053829103487143176
24895.0,26111.0,0.06202327149653941
24905.0,26104.0,0.0659802452498744
24915.0,26091.0,0.06640303150644435
24926.0,26085.0,0.06408349104970115
24935.0,26078.0,0.0598362112929328
24945.0,26081.0,0.05443816690193768
24955.0,26070.0,0.04857836800050826
24965.0,26078.0,0.042820396764787716
24975.0,26077.0,0.03757953084445635
24985.0,26084.0,0.033115000022517396
24995.0,26100.0,0.02953662129475756
25005.0,26098.0,0.026823664790308285
