timestamp_ms,ir_value,ir_filtered
6906.0,25189.0,0.027429540569710403
6915.0,25189.0,0.035552645450367605
6925.0,25195.0,0.04348124576706382
6935.0,25195.0,0.05112936707136309
6946.0,25214.0,0.058463061350819856
6956.0,25215.0,0.06551795875834174
6966.0,25217.0,0.0724114029509414
6976.0,25211.0,0.0793461586221915
6986.0,25209.0,0.08660398296088564
6996.0,25209.0,0.09452951944509667
7005.0,25214.0,0.10350654272429265
7015.0,25211.0,0.11392890716935046
7025.0,25195.0,0.12616831058161684
7035.0,25203.0,0.1405414294284752
7046.0,25206.0,0.15728011088226815
7056.0,25213.0,0.17650848447765038
7066.0,25214.0,0.19822939709987208
7076.0,25216.0,0.22232093921478172
7086.0,25239.0,0.24854313958858607
7096.0,25240.0,0.2765543661268815
7105.0,25250.0,0.30593576514368453
7115.0,25259.0,0.33622101953912686
7125.0,25260.0,0.3669287142913252
7135.0,25282.0,0.3975951283192248
7146.0,25295.0,0.42780532811180333
7156.0,25305.0,0.4572196511456054
7166.0,25297.0,0.48559181315296013
7176.0,25302.0,0.5127755442406351
7186.0,25311.0,0.5387190278817003
7196.0,25310.0,0.5634485148258235
7205.0,25307.0,0.587043062719836
7215.0,25313.0,0.6096024672879644
7225.0,25318.0,0.6312110090027787
7235.0,25324.0,0.6518998498518643
7245.0,25323.0,0.6716102644993862
7256.0,25318.0,0.6901592980651096
7266.0,25317.0,0.7072097970325366
7276.0,25312.0,0.7222477593339919
7286.0,25318.0,0.7345705969319338
7296.0,25306.0,0.7432896079776209
7306.0,25309.0,0.7473490527300393
7316.0,25309.0,0.7455633223464336
7326.0,25318.0,0.7366725795722863
7335.0,25321.0,0.7194152714149893
7345.0,25322.0,0.6926133126989793
7355.0,25311.0,0.6552636954510553
7365.0,25309.0,0.6066296525850571
7375.0,25308.0,0.5463249402637195
7385.0,25297.0,0.47438507576444405
7396.0,25284.0,0.39131901780317324
7406.0,25268.0,0.29813477875929856
7416.0,25234.0,0.19633367743952163
7426.0,25194.0,0.08787038937678297
7436.0,25153.0,-0.02492043152278299
7446.0,25111.0,-0.13942590196561466
7456.0,25081.0,-0.25287646067222574
7466.0,25042.0,-0.3624770914689737
7475.0,25021.0,-0.4655383641975898
7485.0,25004.0,-0.5595988122780116
7495.0,24963.0,-0.6425320967498214
7505.0,24953.0,-0.712634116859188
7515.0,24949.0,-0.7686860417434033
7525.0,24946.0,-0.8099902634917927
7536.0,24935.0,-0.8363788005246383
7546.0,24947.0,-0.8481964187319467
7556.0,24941.0,-0.8462620528532325
7566.0,24938.0,-0.8318124180999444
7576.0,24951.0,-0.8064315438778548
7586.0,24959.0,-0.7719694380518275
7596.0,24973.0,-0.7304530703065014
7605.0,24980.0,-0.6839936655160452
7615.0,24992.0,-0.6346948620241702
7625.0,25000.0,-0.5845659488434051
7635.0,25005.0,-0.5354435311217773
7645.0,25024.0,-0.4889240687814663
7655.0,25034.0,-0.4463091873172324
7665.0,25038.0,-0.40856575282224084
7676.0,25051.0,-0.3763029175811944
7686.0,25046.0,-0.3497678585648726
7696.0,25037.0,-0.3288606857918983
7706.0,25041.0,-0.31316718745545824
7716.0,25034.0,-0.3020061008936734
7726.0,25040.0,-0.2944865215632464
7735.0,25031.0,-0.2895713183462655
7745.0,25030.0,-0.28614311421377975
7755.0,25024.0,-0.28306965245665916
7765.0,25023.0,-0.27926523970459294
7775.0,25026.0,-0.2737449986301558
7785.0,25025.0,-0.2656692781468595
7795.0,25019.0,-0.25437654130595305
7806.0,25032.0,-0.23940376096001617
7816.0,25044.0,-0.22049385238056535
7826.0,25033.0,-0.19759073304129118
7836.0,25041.0,-0.17082377824124417
7846.0,25061.0,-0.14048345894700984
7856.0,25061.0,-0.10698957825499378
7866.0,25079.0,-0.07085429825834763
7875.0,25087.0,-0.0326433187662619
7885.0,25094.0,0.007061135247236664
7895.0,25104.0,0.04769227502192614
7905.0,25107.0,0.08872319751864786
7915.0,25116.0,0.12968240897867264
7925.0,25124.0,0.17015999759310765
7935.0,25133.0,0.20980466112858326
7946.0,25138.0,0.24831202119058324
7956.0,25135.0,0.2854048598776882
7966.0,25141.0,0.3208066628883648
7976.0,25147.0,0.35421102335035753
7986.0,25131.0,0.3852502843591478
7996.0,25138.0,0.4134672329732355
8005.0,25139.0,0.43829423654725364
8015.0,25132.0,0.45904440420588655
8025.0,25134.0,0.47491852233475423
8035.0,25146.0,0.48503024890274576
8045.0,25142.0,0.48845053576747594
8055.0,25157.0,0.48427001607282605
8065.0,25169.0,0.4716755519105393
8076.0,25183.0,0.4500346816163223
8086.0,25170.0,0.41897935776063566
8096.0,25162.0,0.3784793106583197
8106.0,25166.0,0.3288967784217193
8116.0,25153.0,0.27101686802240343
8126.0,25135.0,0.20604937009247884
8136.0,25106.0,0.13559899285200597
8145.0,25077.0,0.061603537182013224
8155.0,25038.0,-0.013756560064947507
8165.0,25006.0,-0.08817004190492608
8175.0,24986.0,-0.15931794384500236
8185.0,24959.0,-0.2249968802168297
8195.0,24951.0,-0.2832323045402342
8205.0,24939.0,-0.3323737769488952
8216.0,24936.0,-0.371166954374619
8226.0,24922.0,-0.39879963149467534
8236.0,24931.0,-0.41492113850433526
8246.0,24938.0,-0.4196357223761895
8256.0,24941.0,-0.4134720425877784
8265.0,24955.0,-0.39733276550448166
8275.0,24968.0,-0.3724295716381714
8285.0,24968.0,-0.34020938253631305
8295.0,24976.0,-0.3022773948100908
8305.0,24987.0,-0.26032136808376743
8315.0,25000.0,-0.21604010996516423
8326.0,25001.0,-0.17107835341190203
8336.0,25002.0,-0.12696993551439778
8346.0,25017.0,-0.08509023849858903
8356.0,25032.0,-0.04661766336676874
8365.0,25038.0,-0.012503955060257933
8375.0,25038.0,0.016545707446773365
8385.0,25047.0,0.04008161326663713
8395.0,25037.0,0.057907207781513224
8405.0,25045.0,0.07006671542983658
8415.0,25047.0,0.0768246844525787
8425.0,25054.0,0.07863944700816118
8436.0,25041.0,0.07613170723361834
8446.0,25030.0,0.07004899193500594
8456.0,25038.0,0.06122756527611477
8466.0,25035.0,0.05055459621666614
8476.0,25036.0,0.038933033674599146
8485.0,25033.0,0.027250072263554092
8495.0,25023.0,0.016349082686723783
8505.0,25013.0,0.007005188063629246
8515.0,25026.0,-9.432856432533773e-05
8525.0,25025.0,-0.00436320030941718
8535.0,25024.0,-0.0053224432427892866
8545.0,25038.0,-0.002600887350686675
8555.0,25045.0,0.004067900309706028
8566.0,25038.0,0.01484969966681619
8576.0,25038.0,0.02981211556463607
8586.0,25043.0,0.04892410092495328
8596.0,25057.0,0.07205296669529737
8606.0,25056.0,0.09895981936917461
8615.0,25064.0,0.12929367310613907
8625.0,25063.0,0.16258426184653746
8635.0,25058.0,0.19823450441957252
8645.0,25080.0,0.23551493764101172
8655.0,25075.0,0.27356313496679713
8665.0,25093.0,0.3113905617444813
8675.0,25108.0,0.3478979930980825
8685.0,25108.0,0.3818993089302065
8696.0,25118.0,0.41215248985697645
8706.0,25116.0,0.43739644475972705
8716.0,25122.0,0.4563929450769217
8726.0,25119.0,0.46797356172388577
8736.0,25144.0,0.471091416634735
8745.0,25139.0,0.4648764325915107
8755.0,25140.0,0.44869080769084035
8765.0,25142.0,0.4221800626606886
8775.0,25134.0,0.3853151436475763
8785.0,25133.0,0.3384218264773253
8795.0,25111.0,0.28219424794456055
8805.0,25102.0,0.21769021228358398
8815.0,25092.0,0.1463072480946593
8825.0,25060.0,0.06973962015401212
8836.0,25037.0,-0.010082502182039463
8846.0,25010.0,-0.09106892080588373
8856.0,24987.0,-0.17105539229519115
8866.0,24980.0,-0.24789352891083802
8875.0,24960.0,-0.31953891259808453
8885.0,24944.0,-0.38413333845399533
8895.0,24932.0,-0.44007847325326155
8905.0,24906.0,-0.48609846250739075
8915.0,24908.0,-0.5212885177740646
8925.0,24901.0,-0.5451462278145806
8935.0,24912.0,-0.557583156400566
8945.0,24913.0,-0.5589163664735922
8955.0,24924.0,-0.5498418397454752
8966.0,24914.0,-0.5313931447605031
8976.0,24920.0,-0.5048885890637015
8986.0,24937.0,-0.47186884001245266
8996.0,24947.0,-0.4340261524859159
9005.0,24961.0,-0.3931271089758979
9015.0,24980.0,-0.35093232346066217
9025.0,24981.0,-0.3091174503774175
9035.0,25007.0,-0.2691998373493254
9045.0,25009.0,-0.232474712129885
9055.0,25021.0,-0.19996430354556835
9065.0,25032.0,-0.1723827774026327
9076.0,25025.0,-0.15011904655567676
9086.0,25023.0,-0.1332382430141036
9096.0,25036.0,-0.12150090220384124
9106.0,25024.0,-0.11439736906140992
9115.0,25029.0,-0.11119445322794584
9125.0,25015.0,-0.11099133018584803
9135.0,25012.0,-0.11278105986326573
9145.0,25008.0,-0.11551314662509946
9155.0,25012.0,-0.11815219899339086
9165.0,25017.0,-0.11972851660005306
9175.0,25022.0,-0.11937821507846377
9186.0,25016.0,-0.11637241614331123
9196.0,25026.0,-0.11013607092065873
9206.0,25032.0,-0.10025708278602088
9215.0,25045.0,-0.08648658763381697
9225.0,25046.0,-0.06873216486936291
9235.0,25046.0,-0.047046543998742994
9245.0,25067.0,-0.021614067141103015
9255.0,25065.0,0.007263659514274497
9265.0,25075.0,0.03918174590089215
9275.0,25082.0,0.07364444669468696
9286.0,25077.0,0.11007544902256716
9296.0,25100.0,0.14782642501745716
9306.0,25099.0,0.18618489815391
9315.0,25108.0,0.22438236959080027
9325.0,25123.0,0.2616032030771816
9335.0,25113.0,0.2969946270084018
9345.0,25121.0,0.3296785170333296
9355.0,25123.0,0.358766359981389
9365.0,25144.0,0.38337939062253307
9375.0,25151.0,0.4026750576886638
9386.0,25149.0,0.41587878638968884
9396.0,25154.0,0.42231837594216776
9406.0,25155.0,0.4214584722898281
9415.0,25157.0,0.4129333545743897
9425.0,25157.0,0.3965764196314728
9435.0,25146.0,0.37244439483060005
9445.0,25149.0,0.34083427535075655
9455.0,25145.0,0.3022913164446919
9465.0,25133.0,0.25760649654849205
9475.0,25132.0,0.20780167015515158
9486.0,25102.0,0.15410090007438568
9496.0,25083.0,0.09788772110084772
9506.0,25067.0,0.0406502791092347
9516.0,25055.0,-0.016081533055064635
9525.0,25043.0,-0.07080213278819998
9535.0,25013.0,-0.12209547995178498
9545.0,25005.0,-0.16869602275007425
9555.0,24994.0,-0.20954143441931417
9565.0,24989.0,-0.24381302644775424
9575.0,24993.0,-0.2709609888853284
9585.0,24984.0,-0.29071376905402496
9596.0,24977.0,-0.30307264644099996
9606.0,24986.0,-0.3082931228598076
9616.0,24986.0,-0.30685458570387236
9625.0,24996.0,-0.2994200652126207
9635.0,24994.0,-0.2867889417824143
9645.0,24991.0,-0.26984600128182745
9655.0,24999.0,-0.24950960013223
9665.0,25022.0,-0.2266806790145385
9675.0,25029.0,-0.20219454703512163
9685.0,25026.0,-0.17677889335472563
9696.0,25023.0,-0.15102211368843582
9706.0,25039.0,-0.12535425671817046
9716.0,25046.0,-0.10004055045517593
9725.0,25046.0,-0.07518692627884935
9735.0,25038.0,-0.05075745011306399
9745.0,25038.0,-0.026602804336227154
9755.0,25044.0,-0.002496889671116832
9765.0,25046.0,0.02182274729348078
9775.0,25056.0,0.04661455930030962
9785.0,25046.0,0.07209540815380915
9796.0,25047.0,0.0984078569428773
9806.0,25062.0,0.12559488766828925
9815.0,25070.0,0.15358478957455257
9825.0,25080.0,0.18218762811813835
9835.0,25069.0,0.21110267337535907
9845.0,25085.0,0.23993546692729867
9855.0,25099.0,0.268223849596601
9865.0,25111.0,0.2954721575203815
9875.0,25113.0,0.3211910961920531
9885.0,25120.0,0.3449393123850875
9895.0,25119.0,0.3663629155166274
9906.0,25141.0,0.38523034336927464
9916.0,25155.0,0.4014603107583917
9926.0,25169.0,0.4151394134177455
9935.0,25166.0,0.42652435115829407
9945.0,25150.0,0.4360238274916245
9955.0,25135.0,0.4441581655692538
9965.0,25112.0,0.4514996188020473
9975.0,25114.0,0.45860099250787356
9985.0,25116.0,0.4659224183249996
9995.0,25112.0,0.47376514778244394
10005.0,25110.0,0.4822183621533349
10015.0,25115.0,0.49112257069122783
10025.0,25109.0,0.5000519742046461
10036.0,25111.0,0.5083173674932432
10046.0,25122.0,0.5149902452863058
10056.0,25126.0,0.5189475479391709
10066.0,25129.0,0.5189346370309745
10075.0,25139.0,0.5136421815576306
10085.0,25128.0,0.5017915153101784
10095.0,25125.0,0.4822228369675708
10105.0,25130.0,0.4539811881102621
10115.0,25120.0,0.4163958045508415
10125.0,25125.0,0.36914830975333246
10135.0,25114.0,0.3123245430391211
10145.0,25096.0,0.24644457132847752
10155.0,25072.0,0.17246632787044022
10165.0,25050.0,0.09176062267532449
10176.0,25022.0,0.0060582817673532526
10186.0,24991.0,-0.08262729409893108
10196.0,24964.0,-0.17209707988660755
10205.0,24928.0,-0.26007640258310716
10215.0,24907.0,-0.3443303697800973
10225.0,24868.0,-0.4227765893344572
10235.0,24853.0,-0.4935869340725356
10245.0,24850.0,-0.5552706552494606
10255.0,24837.0,-0.6067330157328082
10265.0,24838.0,-0.6473069274934439
10275.0,24837.0,-0.6767584151593257
10285.0,24833.0,-0.6952688394450366
10295.0,24832.0,-0.7033978043466915
10305.0,24826.0,-0.7020307772552468
10316.0,24845.0,-0.6923149145683105
10326.0,24846.0,-0.6755863645318515
10336.0,24856.0,-0.6532930521932585
10345.0,24862.0,-0.6269178169563029
10355.0,24863.0,-0.5979066517319509
10365.0,24870.0,-0.5676057236988922
10375.0,24868.0,-0.5372094672203773
10385.0,24880.0,-0.5077207559349742
10395.0,24882.0,-0.4799233358887762
10405.0,24888.0,-0.45436648499307614
10415.0,24892.0,-0.43136191005710467
10425.0,24889.0,-0.41099268811804196
10435.0,24885.0,-0.3931333820657067
10445.0,24886.0,-0.3774793625922198
10456.0,24885.0,-0.363582271116584
10466.0,24892.0,-0.350888183417849
10475.0,24892.0,-0.3387756264674043
10485.0,24898.0,-0.3265916609873038
10495.0,24898.0,-0.31368513197585923
10505.0,24900.0,-0.29943661131593013
10515.0,24906.0,-0.2832845889198221
10525.0,24908.0,-0.2647474246959437
10535.0,24911.0,-0.2434406969135638
10545.0,24924.0,-0.21908980085654928
10555.0,24923.0,-0.19153789825549683
10565.0,24922.0,-0.1607495494961354
10576.0,24943.0,-0.12681020108882693
10586.0,24956.0,-0.08992143167617404
10595.0,24961.0,-0.05039257335870199
10605.0,24969.0,-0.008630600951300475
10615.0,24973.0,0.03486975023444436
10625.0,24983.0,0.0795349602098847
10635.0,24990.0,0.12472131920858572
10645.0,25013.0,0.16972395159822692
10655.0,25012.0,0.21378649940462763
10665.0,25013.0,0.25611095658163907
10675.0,25021.0,0.2958674210958933
10686.0,25024.0,0.3322048811063682
10696.0,25030.0,0.36426508564405696
10705.0,25040.0,0.39120124640998827
10715.0,25044.0,0.41220232489215436
10725.0,25036.0,0.4265226429095889
10735.0,25057.0,0.433515992237695
10745.0,25050.0,0.43267316851484255
10755.0,25064.0,0.4236610491570475
10765.0,25064.0,0.4063599510096621
10775.0,25053.0,0.38089501507122386
10785.0,25044.0,0.34765749190801315
10796.0,25044.0,0.3073131162374551
10806.0,25035.0,0.26079626909577486
10815.0,25024.0,0.20928910483004493
10825.0,25002.0,0.1541847942812862
10835.0,24980.0,0.09703501270214099
10845.0,24959.0,0.03948400937319854
10855.0,24943.0,-0.016806112458694747
10865.0,24927.0,-0.07023307611133173
10875.0,24908.0,-0.1193293403443313
10885.0,24891.0,-0.1628291227455227
10895.0,24889.0,-0.19972286629049127
10906.0,24879.0,-0.22929508598983767
10915.0,24883.0,-0.25114297780939115
10925.0,24895.0,-0.2651753125289284
10935.0,24893.0,-0.27159347022485514
10945.0,24898.0,-0.27085850246868814
10955.0,24908.0,-0.2636490457468222
10965.0,24905.0,-0.25081463446672586
10975.0,24913.0,-0.23332826676599952
10985.0,24909.0,-0.21224121703048662
10995.0,24914.0,-0.18864188790980516
11005.0,24904.0,-0.16361916279156574
11015.0,24915.0,-0.13822948351407502
11026.0,24919.0,-0.1134660385375466
11036.0,24935.0,-0.09022867095174655
11045.0,24937.0,-0.06929453263292285
11055.0,24946.0,-0.05129110511186286
11065.0,24951.0,-0.03667390687517448
11075.0,24954.0,-0.025711017251076537
11085.0,24958.0,-0.018476081937742528
11095.0,24955.0,-0.01485096658479502
11105.0,24955.0,-0.014538568369255234
11115.0,24938.0,-0.017085355027402296
11125.0,24940.0,-0.021911893599983242
11136.0,24931.0,-0.028348250486704373
11146.0,24938.0,-0.03567053796262788
11155.0,24937.0,-0.04313557848642878
11165.0,24926.0,-0.050012074707352486
11175.0,24928.0,-0.055607584747788014
11185.0,24931.0,-0.059290511452523606
11195.0,24926.0,-0.06050613425532974
11205.0,24938.0,-0.058786280437567486
11215.0,24945.0,-0.05375321414896354
11225.0,24934.0,-0.045119258222640755
11235.0,24953.0,-0.03268414535828724
11246.0,24956.0,-0.01633180785826
11255.0,24957.0,0.003972009904027841
11265.0,24958.0,0.028179928176642704
11275.0,24963.0,0.05616014195874291
11285.0,24966.0,0.08769124036723355
11295.0,24976.0,0.12245609440738843
11305.0,24996.0,0.16003620365409435
11315.0,24990.0,0.1999071097390272
11325.0,24999.0,0.24143475164371778
11335.0,25003.0,0.28387301897145595
11346.0,25018.0,0.32636395931677237
11355.0,25025.0,0.3679425263743608
11365.0,25021.0,0.4075470713631332
11375.0,25025.0,0.4440363592194802
11385.0,25040.0,0.4762144439366031
11395.0,25045.0,0.5028650074485937
11405.0,25057.0,0.522795510460154
11415.0,25053.0,0.5348895347172897
11425.0,25060.0,0.5381645556325158
11435.0,25065.0,0.5318322273396727
11446.0,25076.0,0.5153580281124183
11455.0,25078.0,0.4885160118565356
11465.0,25072.0,0.4514329612038959
11475.0,25054.0,0.4046158595674661
11485.0,25041.0,0.3489581414996369
11495.0,25025.0,0.2857229591127528
11505.0,25010.0,0.21650412339345512
11515.0,24979.0,0.14316667362615093
11525.0,24957.0,0.06776997416898299
11535.0,24934.0,-0.007522307095697414
11546.0,24910.0,-0.08053950990350452
11555.0,24895.0,-0.14920218750310665
11565.0,24869.0,-0.21161513411268867
11575.0,24864.0,-0.2661498064398346
11585.0,24847.0,-0.3115115052697613
11595.0,24850.0,-0.3467878428322049
11605.0,24840.0,-0.3714766090035311
11615.0,24836.0,-0.38549273666616557
11625.0,24838.0,-0.38915506523513843
11635.0,24842.0,-0.38315401595248877
11646.0,24856.0,-0.3685018693938047
11655.0,24869.0,-0.3464686212518977
11665.0,24868.0,-0.3185079683811651
11675.0,24882.0,-0.2861787729486801
11685.0,24889.0,-0.25106681820863047
11695.0,24898.0,-0.21471059708458284
11705.0,24916.0,-0.17853429022382483
11715.0,24909.0,-0.14379095183487695
11725.0,24925.0,-0.11151854882371832
11735.0,24925.0,-0.08251051662139133
11745.0,24932.0,-0.05730133975971731
11755.0,24935.0,-0.03616694229728028
11765.0,24910.0,-0.019139037316570323
11775.0,24933.0,-0.006031251968277594
11785.0,24921.0,0.003526734830442171
11795.0,24925.0,0.010051109406675512
11805.0,24926.0,0.014164915173275578
11815.0,24921.0,0.016560224907846005
11825.0,24931.0,0.017963240256171128
11835.0,24926.0,0.019103612179983905
11845.0,24931.0,0.020688572040093674
11855.0,24937.0,0.023381806882055572
11865.0,24935.0,0.02778653009444292
11875.0,24940.0,0.034431837875551395
11885.0,24945.0,0.04376132587976247
11895.0,24944.0,0.056123080837600085
11905.0,24947.0,0.07176036814287444
11915.0,24954.0,0.0908026878120279
11925.0,24946.0,0.11325737924219019
11935.0,24954.0,0.13900248642551843
11945.0,24958.0,0.1677822042137855
11955.0,24964.0,0.19920658984906336
11965.0,24980.0,0.23275682365233302
11975.0,24992.0,0.2677962465053308
11985.0,24994.0,0.3035861615167275
11995.0,25011.0,0.33930458832430915
12005.0,25009.0,0.37406626312138397
12015.0,25033.0,0.40694272724045866
12025.0,25025.0,0.43698157724172493
12035.0,25029.0,0.4632239948226609
12045.0,25020.0,0.48472038870660134
12055.0,25018.0,0.5005456100582788
12065.0,25026.0,0.5098167000655621
12075.0,25030.0,0.5117161553867796
12085.0,25034.0,0.5055219874278141
12095.0,25032.0,0.4906435029883756
12105.0,25028.0,0.46666017992245473
12115.0,25025.0,0.4333606564613669
12125.0,25019.0,0.39077905527590423
12135.0,25014.0,0.33922593172961524
12145.0,25003.0,0.2793109383577116
12155.0,24990.0,0.21195417697999414
12165.0,24984.0,0.13838347250483019
12175.0,24960.0,0.06011533890941509
12185.0,24941.0,-0.02108187797121547
12195.0,24917.0,-0.10324292828275587
12205.0,24901.0,-0.18427705963137025
12215.0,24879.0,-0.2620527333368352
12225.0,24841.0,-0.33449162152632933
12235.0,24824.0,-0.39966680597880927
12245.0,24804.0,-0.4558984349313114
12255.0,24794.0,-0.5018390751701783
12265.0,24787.0,-0.5365418135608312
12275.0,24774.0,-0.5595061640502967
12285.0,24787.0,-0.5706987614585008
12295.0,24790.0,-0.570547519489892
12305.0,24803.0,-0.5599100226905116
12315.0,24809.0,-0.5400192756872854
12325.0,24815.0,-0.5124114799711798
12335.0,24838.0,-0.478840805444847
12345.0,24851.0,-0.44118603840223924
12355.0,24869.0,-0.4013544846714659
12365.0,24871.0,-0.3611892119068511
12375.0,24879.0,-0.3223853487608066
12385.0,24900.0,-0.28641948739048173
12395.0,24901.0,-0.25449462333998457
12405.0,24912.0,-0.2275025205963253
12415.0,24910.0,-0.2060051097704438
12425.0,24902.0,-0.19023537534702356
12435.0,24908.0,-0.1801162541098821
12445.0,24910.0,-0.17529430419653724
12455.0,24918.0,-0.17518439590809198
12465.0,24898.0,-0.17902247009565397
12475.0,24894.0,-0.1859238830438442
12485.0,24894.0,-0.1949438160150557
12495.0,24892.0,-0.20513495299799903
12505.0,24898.0,-0.2155980066649616
12515.0,24887.0,-0.22552241258918826
12525.0,24884.0,-0.23421589800809312
12535.0,24893.0,-0.2411218975729784
12545.0,24902.0,-0.24582391316149912
12555.0,24906.0,-0.2480372289918822
12565.0,24912.0,-0.24759048003841014
12575.0,24909.0,-0.24440075450850282
12585.0,24931.0,-0.23844570794586997
12595.0,24929.0,-0.2297357057775112
12605.0,24939.0,-0.21828914664138288
12615.0,24947.0,-0.20411427276283606
12625.0,24941.0,-0.18720014907257723
12635.0,24947.0,-0.16751816757886132
12645.0,24952.0,-0.14503377267717915
12655.0,24959.0,-0.11972669801091586
12665.0,24956.0,-0.09161745128858624
12675.0,24953.0,-0.06079752077924411
12685.0,24976.0,-0.027459963370234226
12695.0,24976.0,0.0080735697334289
12704.0,24989.0,0.04533255492637736
12715.0,24998.0,0.08368585130334155
12725.0,25002.0,0.12233957267267377
12735.0,25010.0,0.1603456365091945
12745.0,25024.0,0.19662211886202904
12755.0,25039.0,0.22998621392055557
12765.0,25042.0,0.2591994623028131
12775.0,25052.0,0.2830235191782281
12785.0,25067.0,0.30028402379648733
12795.0,25075.0,0.30993976754209374
12804.0,25090.0,0.3111534214070079
12815.0,25097.0,0.303358758462148
12825.0,25095.0,0.2863184342689687
12835.0,25102.0,0.2601664580965212
12845.0,25097.0,0.22543042583349981
12855.0,25088.0,0.18302985406179037
12865.0,25060.0,0.13424848813452644
12875.0,25049.0,0.0806809425471103
12885.0,25036.0,0.02415719413418859
12895.0,25016.0,-0.03334939045728806
12905.0,24996.0,-0.08982431878417167
12915.0,24961.0,-0.14331811627795674
12925.0,24953.0,-0.19204875006811697
12935.0,24946.0,-0.2344915178434814
12945.0,24946.0,-0.26944829441895835
12955.0,24951.0,-0.2960911101292227
12965.0,24955.0,-0.31397889221390324
12975.0,24966.0,-0.323049263109776
12985.0,24973.0,-0.32358927711733615
12994.0,24982.0,-0.31619013746396585
13005.0,24988.0,-0.30169134683494125
13015.0,24993.0,-0.2811193896972845
13025.0,25011.0,-0.2556251625946231
13035.0,25010.0,-0.22642353145770802
13045.0,25022.0,-0.19473785948978428
13055.0,25028.0,-0.16175168754513092
13065.0,25023.0,-0.12856868279204098
13075.0,25037.0,-0.0961807204380855
13085.0,25044.0,-0.06544287902789253
13094.0,25055.0,-0.0370538486745747
13105.0,25067.0,-0.011541043431043577
13115.0,25067.0,0.010749248939179052
13125.0,25077.0,0.02965596613614739
13135.0,25083.0,0.04520124134968032
13145.0,25095.0,0.05758224839755317
13155.0,25092.0,0.06715678358476068
13165.0,25093.0,0.07442222646621631
13175.0,25093.0,0.07998808706431283
13185.0,25107.0,0.08454342653440257
13194.0,25100.0,0.08882083787632462
13205.0,25096.0,0.0935582607647307
13215.0,25095.0,0.09946000981979768
13225.0,25097.0,0.10715949883358429
13235.0,25108.0,0.1171868870085462
13245.0,25110.0,0.1299441763827977
13255.0,25115.0,0.1456887816996224
13265.0,25118.0,0.16452556015219763
13275.0,25125.0,0.18640717505111454
13285.0,25135.0,0.21114285017875278
13294.0,25148.0,0.23841528994958525
13305.0,25155.0,0.26780468654537126
13315.0,25166.0,0.29881783681287455
13325.0,25182.0,0.33091997382429256
13335.0,25204.0,0.3635667194574438
13345.0,25213.0,0.39623290821243184
13355.0,25212.0,0.4284342946224336
13365.0,25218.0,0.4597387715882395
13375.0,25218.0,0.4897660615195582
13384.0,25234.0,0.5181773104052027
13395.0,25234.0,0.5446570267316734
13405.0,25222.0,0.5688896405504797
13415.0,25237.0,0.5905331742475939
13425.0,25233.0,0.6091935380992174
13435.0,25237.0,0.624403392326544
13445.0,25239.0,0.6356087447499961
13455.0,25232.0,0.6421655477850718
13465.0,25232.0,0.6433481799260724
13475.0,25233.0,0.6383715342667589
13485.0,25237.0,0.6264278784718047
13494.0,25244.0,0.6067381564956434
13505.0,25250.0,0.5786150999844478
13515.0,25239.0,0.5415332221748883
13525.0,25252.0,0.49519937010375653
13535.0,25238.0,0.43961718739511046
13545.0,25240.0,0.3751389140159567
13555.0,25223.0,0.3024981422939492
13565.0,25208.0,0.2228179705388956
13575.0,25167.0,0.13759086227946
13585.0,25140.0,0.0486296378407613
13595.0,25116.0,-0.04200702141987876
13605.0,25086.0,-0.13210804607825516
13614.0,25052.0,-0.2194147769523618
13624.0,25036.0,-0.30172936876380185
13635.0,25003.0,-0.37701901418021255
13645.0,24993.0,-0.44350847881747113
13655.0,24991.0,-0.4997545523319152
13665.0,24987.0,-0.5446981615134878
13675.0,24987.0,-0.5776929766826742
13685.0,24979.0,-0.5985121863136906
13695.0,24969.0,-0.6073362589100476
13705.0,24986.0,-0.6047239697203332
13715.0,24993.0,-0.5915683236198
13724.0,25002.0,-0.5690397761003566
13734.0,25017.0,-0.5385208549446558
13745.0,25010.0,-0.5015371326139239
13755.0,25024.0,-0.4596887672845384
13765.0,25038.0,-0.41458521600059856
13775.0,25058.0,-0.3677846537335207
13785.0,25060.0,-0.3207400211163481
13795.0,25071.0,-0.27475439379274047
13805.0,25075.0,-0.23094785227594342
13815.0,25083.0,-0.19023643638736779
13825.0,25092.0,-0.15332244238360987
13834.0,25099.0,-0.12069485213284122
13844.0,25097.0,-0.09263873729734387
13855.0,25089.0,-0.06925229533836416
13865.0,25108.0,-0.050469264376825765
13875.0,25094.0,-0.03608360614876201
13885.0,25102.0,-0.025773568082190865
13895.0,25122.0,-0.019123173570498544
13905.0,25108.0,-0.015640368376952832
13915.0,25112.0,-0.014772421404654887
13925.0,25113.0,-0.015919696148361768
13935.0,25115.0,-0.01844823369850248
13944.0,25118.0,-0.021701235624658723
13954.0,25117.0,-0.025010088102167555
13965.0,25110.0,-0.027706010709260293
13975.0,25118.0,-0.029133121348047294
13985.0,25111.0,-0.02866306706296968
13995.0,25114.0,-0.025711015951612272
14005.0,25114.0,-0.019752739229047973
14015.0,25116.0,-0.01034238233257115
14025.0,25114.0,0.0028696378471015603
14035.0,25114.0,0.02011936800294594
14045.0,25128.0,0.04151379311383859
14054.0,25127.0,0.06701823889717143
14064.0,25136.0,0.09644735889213452
14075.0,25131.0,0.12945989810315245
14085.0,25154.0,0.16555769209159205
14095.0,25159.0,0.20408967475508755
14105.0,25169.0,0.2442610761140588
14115.0,25178.0,0.28514701010208815
14125.0,25183.0,0.32570941740995124
14135.0,25195.0,0.364816802289333
14145.0,25196.0,0.40126664002445733
14155.0,25203.0,0.4338105322377758
14164.0,25207.0,0.46118236506218396
14174.0,25208.0,0.482129885681762
14184.0,25205.0,0.4954501273555166
14195.0,25206.0,0.5000291058971439
14205.0,25211.0,0.49488616523901247
14215.0,25210.0,0.4792227302492263
14225.0,25213.0,0.4524738147846527
14235.0,25210.0,0.4143590550825717
14245.0,25199.0,0.36492898334510665
14255.0,25193.0,0.3046019947083988
14265.0,25189.0,0.234187840087308
14275.0,25162.0,0.15489393587762856
14285.0,25144.0,0.06831130813694337
14294.0,25122.0,-0.023621627050146993
14304.0,25102.0,-0.11867717857042333
14314.0,25063.0,-0.2144164838952852
14325.0,25036.0,-0.308284371170665
14335.0,25017.0,-0.3977159743024945
14345.0,24986.0,-0.48024856965033136
14355.0,24972.0,-0.5536318796041186
14365.0,24960.0,-0.6159307699079921
14375.0,24931.0,-0.66561512710857
14385.0,24914.0,-0.7016323172252684
14395.0,24907.0,-0.7234574099611036
14405.0,24919.0,-0.7311160007691612
14415.0,24924.0,-0.725175966717897
14425.0,24933.0,-0.7067080396042117
14434.0,24957.0,-0.6772185803405317
14444.0,24965.0,-0.6385600934747193
14454.0,24992.0,-0.5928262895933231
14465.0,24991.0,-0.5422391936243407
14475.0,25026.0,-0.4890355898439111
14485.0,25031.0,-0.43535928121795936
14495.0,25042.0,-0.3831649192133311
14505.0,25060.0,-0.33413834044345553
14515.0,25057.0,-0.2896369158480055
14525.0,25062.0,-0.250651653943423
14535.0,25067.0,-0.2177909764229004
14545.0,25082.0,-0.19128444891343324
14555.0,25078.0,-0.17100416727932977
14565.0,25074.0,-0.1565018667057688
14574.0,25078.0,-0.14705962290335692
14584.0,25073.0,-0.14175086275110513
14594.0,25063.0,-0.139507461107632
14605.0,25057.0,-0.1391882835273253
14615.0,25069.0,-0.13964413285520166
14625.0,25077.0,-0.1397744040399677
14635.0,25073.0,-0.13857279073802733
14645.0,25075.0,-0.13516185971372058
14655.0,25078.0,-0.12881720540081118
14665.0,25084.0,-0.11898145254992877
14675.0,25092.0,-0.10526825091523884
14685.0,25101.0,-0.08745712601738204
14695.0,25108.0,-0.06548098235927688
14704.0,25120.0,-0.0394086569161193
14714.0,25118.0,-0.009425018822305477
14724.0,25122.0,0.02418941587083571
14735.0,25137.0,0.06107852775295911
14745.0,25153.0,0.10083041646846486
14755.0,25160.0,0.14299681001748174
14765.0,25187.0,0.1871106610623861
14775.0,25200.0,0.23269958768147592
14785.0,25197.0,0.2792924614222127
14795.0,25197.0,0.32641713019382745
14805.0,25209.0,0.37358967511617813
14815.0,25225.0,0.4202983644857388
14825.0,25229.0,0.4659861745812273
14835.0,25241.0,0.5100345411542374
14844.0,25259.0,0.5517499027898239
14854.0,25258.0,0.5903541681665067
14864.0,25245.0,0.6249800998755531
14875.0,25259.0,0.6546734073929396
14885.0,25259.0,0.678404955342524
14895.0,25275.0,0.6950967785231873
14905.0,25285.0,0.7036635035589565
14915.0,25289.0,0.7030677250682122
14925.0,25284.0,0.6923855702331044
14935.0,25296.0,0.6708778287297472
14945.0,25294.0,0.6380620689073809
14955.0,25295.0,0.5937808187567973
14965.0,25295.0,0.5382599903509594
14974.0,25288.0,0.4721511688672014
14984.0,25273.0,0.39655158860040857
14994.0,25250.0,0.3129967124412094
15005.0,25228.0,0.22342258695756823
15015.0,25193.0,0.13009823607094312
15025.0,25166.0,0.03553149291359317
15035.0,25133.0,-0.05764563217460008
15045.0,25108.0,-0.1468039801616298
15055.0,25075.0,-0.2294475863139539
15065.0,25045.0,-0.3033379390068705
15075.0,25044.0,-0.36660276186421387
15085.0,25034.0,-0.41782085159187105
15095.0,25035.0,-0.4560772704391083
15105.0,25043.0,-0.4809870974136203
15114.0,25048.0,-0.49268933115554225
15124.0,25053.0,-0.49181482718820124
15134.0,25052.0,-0.4794333145254977
15145.0,25065.0,-0.45698437103393835
15155.0,25079.0,-0.42619636544300094
15165.0,25090.0,-0.3889970804442276
15175.0,25103.0,-0.34742026695761136
15185.0,25119.0,-0.30351279778543205
15195.0,25127.0,-0.2592468691751131
15205.0,25131.0,-0.2164410594994846
15215.0,25162.0,-0.1766931212612772
15225.0,25163.0,-0.1413266560108127
15235.0,25161.0,-0.11135381205598822
15245.0,25161.0,-0.08745568633249005
15254.0,25176.0,-0.06998011333391399
15264.0,25164.0,-0.05895455301697397
15274.0,25163.0,-0.054111326899475856
15285.0,25169.0,-0.054922400914152854
15295.0,25167.0,-0.0606405431338515
15305.0,25171.0,-0.07034399241743965
15315.0,25170.0,-0.08298288167024517
15325.0,25163.0,-0.09742650194421144
15335.0,25162.0,-0.11251056417862249
15345.0,25161.0,-0.1270831782694794
15355.0,25160.0,-0.14004795218791732
15365.0,25156.0,-0.15040282467248536
15375.0,25154.0,-0.15727359727158996
15385.0,25163.0,-0.15994119979130858
15394.0,25158.0,-0.15786186022793874
15404.0,25159.0,-0.15067982612742525
15414.0,25152.0,-0.13823244461843545
15425.0,25174.0,-0.12054686659551343
15435.0,25179.0,-0.097827473366328
15445.0,25188.0,-0.07043434628078235
15455.0,25205.0,-0.03885481478540025
15465.0,25218.0,-0.0036710020146113035
15475.0,25233.0,0.03447342179213484
15485.0,25234.0,0.07490387992775922
15495.0,25265.0,0.1169398806079192
15505.0,25263.0,0.15991213176188762
15515.0,25274.0,0.20317015384783652
15524.0,25282.0,0.24607951871419206
15534.0,25286.0,0.2880092987976371
15544.0,25280.0,0.3283118957216719
15554.0,25281.0,0.3662988308064553
15565.0,25293.0,0.4012175137439782
15575.0,25290.0,0.4322346421064502
15585.0,25305.0,0.45843095163848435
15595.0,25312.0,0.4788102132149047
15605.0,25309.0,0.4923235379439245
15615.0,25315.0,0.49790861451225904
15625.0,25322.0,0.4945427298139926
15635.0,25328.0,0.481307740991934
15645.0,25334.0,0.45746368912323787
15655.0,25338.0,0.42252580125256334
15664.0,25342.0,0.37633810310329535
15674.0,25329.0,0.3191360816661679
15684.0,25321.0,0.25159101982432036
15695.0,25310.0,0.17482997527333088
15705.0,25282.0,0.09042739854677025
15715.0,25261.0,0.00036653292663797765
15725.0,25223.0,-0.09302875227868326
15735.0,25200.0,-0.1871880918343601
15745.0,25169.0,-0.27940847606254665
15755.0,25130.0,-0.36697990857103163
15765.0,25115.0,-0.44731403362678535
15775.0,25090.0,-0.5180664502573015
15785.0,25084.0,-0.5772440088037429
15794.0,25078.0,-0.6232903675012744
15804.0,25081.0,-0.6551458691516563
15814.0,25069.0,-0.672280544732253
15824.0,25074.0,-0.6747009314403309
15835.0,25085.0,-0.6629320118235847
15845.0,25088.0,-0.6379758510630564
15855.0,25109.0,-0.6012494206003504
15865.0,25131.0,-0.5545053884334752
15875.0,25141.0,-0.4997409090702561
15885.0,25155.0,-0.43910036054573204
15895.0,25169.0,-0.3747777400507968
15905.0,25195.0,-0.30892310718958066
15915.0,25209.0,-0.2435565150300889
15925.0,25222.0,-0.18049291008538504
15934.0,25238.0,-0.12128144425823753
15944.0,25243.0,-0.06716169866701185
15954.0,25251.0,-0.019037870341867533
15965.0,25257.0,0.022529468589186443
15975.0,25267.0,0.057315644550011896
15985.0,25275.0,0.08541037920731026
15995.0,25278.0,0.10718451510953612
16005.0,25272.0,0.12324666939352893
16015.0,25277.0,0.13439188603589317
16025.0,25276.0,0.14154528159672455
16035.0,25268.0,0.14570424761535705
16045.0,25278.0,0.1478826924744245
16055.0,25278.0,0.14906039886242137
16064.0,25280.0,0.15013971258791736
16074.0,25280.0,0.15191057050325463
16084.0,25271.0,0.155024202746517
16095.0,25287.0,0.15997602824092452
16105.0,25286.0,0.16709841654111002
16115.0,25292.0,0.17656323371297664
16125.0,25298.0,0.18839286209068737
16135.0,25298.0,0.20247773480764109
16145.0,25299.0,0.21859853789237146
16155.0,25307.0,0.2364517225739003
16165.0,25321.0,0.25567736502339905
16175.0,25321.0,0.27588807738393695
16185.0,25328.0,0.29669683051213924
16194.0,25345.0,0.3177412390311783
16204.0,25351.0,0.33870206531291486
16214.0,25348.0,0.35931366191967445
16224.0,25347.0,0.37936437797099176
16235.0,25357.0,0.39868654960383115
16245.0,25349.0,0.41713774274598203
16255.0,25362.0,0.4345760456746701
16265.0,25358.0,0.450832438624139
16275.0,25364.0,0.46568327795094117
16285.0,25372.0,0.4788259076306311
16295.0,25380.0,0.48986025038537506
16305.0,25380.0,0.4982789110391751
16315.0,25386.0,0.5034678486381582
16325.0,25399.0,0.5047190472496466
16334.0,25400.0,0.501255862904286
16344.0,25397.0,0.4922708679359134
16354.0,25399.0,0.4769750741908095
16365.0,25406.0,0.4546564200129351
16375.0,25401.0,0.4247443867371601
16385.0,25400.0,0.38687661055766925
16395.0,25396.0,0.3409624245598341
16405.0,25384.0,0.287237459570433
16415.0,25358.0,0.2263028124790053
16425.0,25321.0,0.15914214080730812
16435.0,25305.0,0.08711119764273671
16445.0,25272.0,0.01189739849585405
16455.0,25248.0,-0.0645488982761332
16464.0,25215.0,-0.1401062380760041
16474.0,25193.0,-0.21258961922896452
16484.0,25162.0,-0.2798650630950095
16494.0,25150.0,-0.3399621280003522
16505.0,25138.0,-0.3911757998335707
16515.0,25127.0,-0.4321507426801169
16525.0,25133.0,-0.46194323940518117
16535.0,25129.0,-0.48005865659345753
16545.0,25127.0,-0.4864644800739662
16555.0,25127.0,-0.48158041180837324
16565.0,25140.0,-0.46624740551681787
16575.0,25149.0,-0.4416776775250045
16585.0,25159.0,-0.4093886362951558
16595.0,25174.0,-0.37112490405476056
16604.0,25186.0,-0.3287732685944997
16614.0,25195.0,-0.28427547438990836
16624.0,25198.0,-0.239543402068655
16635.0,25223.0,-0.19638029008063917
16645.0,25225.0,-0.15641075410334704
16655.0,25233.0,-0.1210221611152992
16665.0,25243.0,-0.09131985246102553
16675.0,25242.0,-0.06809798393095143
16685.0,25241.0,-0.05182668632683249
16695.0,25239.0,-0.0426551595763432
16705.0,25229.0,-0.04042903597966022
16715.0,25229.0,-0.04471912537719658
16725.0,25239.0,-0.054858069850110186
16735.0,25235.0,-0.06998206814258903
16744.0,25228.0,-0.08907648736060339
16754.0,25219.0,-0.11102528914807308
16764.0,25196.0,-0.13466351409180982
16775.0,25189.0,-0.15883014464534986
16785.0,25190.0,-0.18241696357591994
16795.0,25185.0,-0.20440892324567994
16805.0,25192.0,-0.22391339893741483
16815.0,25189.0,-0.24017825681847996
16825.0,25182.0,-0.252600432328818
16835.0,25181.0,-0.2607271405804204
16845.0,25182.0,-0.2642512025315153
16855.0,25183.0,-0.2630012626140718
16865.0,25191.0,-0.2569277310880701
16875.0,25202.0,-0.2460859795088237
16884.0,25202.0,-0.2306191867726557
16894.0,25210.0,-0.2107437791421977
16904.0,25207.0,-0.18674003072090203
16915.0,25208.0,-0.15894905465922848
16925.0,25208.0,-0.12777569474877812
16935.0,25219.0,-0.0936953431626695
16945.0,25229.0,-0.05726211116994621
16955.0,25234.0,-0.01911635535425945
16965.0,25246.0,0.020009392621997548
16975.0,25241.0,0.05928656526913828
16985.0,25242.0,0.09778969635051829
16995.0,25255.0,0.13450055540529957
17005.0,25253.0,0.16832003613692517
17015.0,25258.0,0.19809018872137502
17024.0,25278.0,0.22262767804825342
17034.0,25280.0,0.2407685839257409
17044.0,25268.0,0.25142280020779073
17055.0,25285.0,0.25363526976668094
17065.0,25290.0,0.24665143949911833
17075.0,25305.0,0.22998385058771867
17085.0,25306.0,0.2034746088410289
17095.0,25295.0,0.16734639334084667
17105.0,25291.0,0.12223465641114735
17115.0,25275.0,0.06919568068658374
17125.0,25262.0,0.009687743734171353
17135.0,25236.0,-0.054475173755383036
17145.0,25215.0,-0.12119566973473368
17155.0,25186.0,-0.18818747171819925
17164.0,25167.0,-0.2530863640786585
17174.0,25143.0,-0.3135700881731921
17184.0,25111.0,-0.3674791292985767
17195.0,25109.0,-0.4129300564949407
17205.0,25092.0,-0.4484132523978548
17215.0,25084.0,-0.47286812899996883
17225.0,25090.0,-0.48573112418336306
17235.0,25093.0,-0.4869540536927989
17245.0,25096.0,-0.47699268492644464
17255.0,25100.0,-0.4567675638802341
17265.0,25117.0,-0.427600418315035
17275.0,25138.0,-0.3911301962770089
17285.0,25150.0,-0.34921410679382164
17294.0,25165.0,-0.30382070761817476
17304.0,25179.0,-0.2569227845202004
17314.0,25186.0,-0.21039707343767883
17324.0,25191.0,-0.16593647309092718
17335.0,25201.0,-0.12497870662725748
17345.0,25208.0,-0.08865368816088995
17355.0,25217.0,-0.05775072838481516
17365.0,25217.0,-0.032706290424507484
17375.0,25207.0,-0.013612517911951196
17385.0,25194.0,-0.0002453069624292946
17395.0,25195.0,0.007891740721334035
17405.0,25197.0,0.011513187360392944
17415.0,25191.0,0.011493224471949646
17425.0,25192.0,0.00880692685368691
17434.0,25182.0,0.00447403661266996
17444.0,25183.0,-0.0004924593962356612
17454.0,25176.0,-0.005130732218063838
17465.0,25178.0,-0.008565498807528157
17475.0,25179.0,-0.0100330281661644
17485.0,25185.0,-0.008895404817876623
17495.0,25183.0,-0.004644922917968698
17505.0,25190.0,0.003099471514879184
17515.0,25192.0,0.01460129598446016
17525.0,25190.0,0.030018804653329234
17535.0,25195.0,0.04941832339914433
17545.0,25212.0,0.07278705237905389
17555.0,25211.0,0.10004383548437028
17565.0,25216.0,0.13104589411787207
17574.0,25222.0,0.16558951377893175
17584.0,25223.0,0.2034037608242689
17594.0,25222.0,0.24413770407899002
17605.0,25229.0,0.28734280001391177
17615.0,25229.0,0.3324531207102577
17625.0,25239.0,0.378766665858714
17635.0,25239.0,0.42543091726532206
17645.0,25249.0,0.47143539233497433
17655.0,25254.0,0.5156134917644546
17665.0,25238.0,0.5566555232470376
17675.0,25256.0,0.5931347780417948
17685.0,25263.0,0.6235487566348208
17695.0,25264.0,0.6463767332246503
17705.0,25274.0,0.6601524925527931
17714.0,25283.0,0.6635488074570342
17724.0,25289.0,0.6554686522097563
17734.0,25292.0,0.635136604899388
17745.0,25297.0,0.6021825611986558
17755.0,25294.0,0.5567093032114148
17765.0,25277.0,0.49933563820537574
17775.0,25250.0,0.43120807811865913
17785.0,25230.0,0.3539769284641689
17795.0,25192.0,0.26973658277577656
17805.0,25158.0,0.18093342142905067
17815.0,25125.0,0.09024755432452301
17825.0,25091.0,0.0004568546935594211
17835.0,25051.0,-0.0857069372866184
17845.0,25024.0,-0.1656997323638568
17854.0,24995.0,-0.2372938224821476
17864.0,24982.0,-0.2986840665335661
17874.0,24962.0,-0.3485636572899989
17885.0,24973.0,-0.38616446575663804
17895.0,24969.0,-0.411260432278145
17905.0,24989.0,-0.4241363985257552
17915.0,24976.0,-0.42552846758082086
17925.0,24973.0,-0.4165439911505281
17935.0,24990.0,-0.39856877383378614
17945.0,24983.0,-0.37316735655691563
17955.0,24993.0,-0.3419813388885052
17965.0,24999.0,-0.30663060006293263
17975.0,25005.0,-0.2686219186872214
17985.0,25014.0,-0.2292689772566097
17994.0,25023.0,-0.1896273973116204
18004.0,25021.0,-0.15044802882741692
18014.0,25023.0,-0.11215086687583482
18025.0,25024.0,-0.07482045295021006
18035.0,25035.0,-0.03822187882729538
18045.0,25042.0,-0.0018355962811094496
18055.0,25048.0,0.0350905347072813
18065.0,25057.0,0.07347300204111028
18075.0,25052.0,0.11430935855006158
18085.0,25049.0,0.15858212142051523
18095.0,25047.0,0.2071540171448781
18105.0,25047.0,0.2606609725812633
18115.0,25051.0,0.319410729478306
18125.0,25050.0,0.3832951787691722
18134.0,25050.0,0.4517239968966297
18144.0,25054.0,0.5235866363716419
18154.0,25067.0,0.5972491496778828
18165.0,25088.0,0.6705908739418912
18175.0,25105.0,0.7410830293682673
18185.0,25124.0,0.805907327073549
18195.0,25142.0,0.8621090513740419
18205.0,25170.0,0.906776412900121
18215.0,25186.0,0.9372357439482487
18225.0,25200.0,0.9512499235821382
18235.0,25216.0,0.9472058797715694
18245.0,25237.0,0.9242765395127162
18255.0,25243.0,0.8825424930461607
18265.0,25238.0,0.8230586366388809
18274.0,25233.0,0.7478523745906912
18284.0,25194.0,0.6598435979263303
18294.0,25141.0,0.5626825084348134
18305.0,25046.0,0.46050960085846315
18315.0,24958.0,0.3576530966037693
18325.0,24857.0,0.25829137082644815
18335.0,24798.0,0.16611789811469774
18345.0,24781.0,0.0840500540085419
18355.0,24783.0,0.014018176449126075
18365.0,24783.0,-0.04314161868095892
18375.0,24814.0,-0.08768331072711393
18385.0,24854.0,-0.1208417862913247
18395.0,24900.0,-0.14463561265980482
18405.0,24929.0,-0.1616076406130175
18414.0,24950.0,-0.1745351915606593
18424.0,24964.0,-0.1861425818732715
18434.0,24955.0,-0.19884505996196608
18445.0,24939.0,-0.21454666086107674
18455.0,24915.0,-0.23450635049008678
18465.0,24883.0,-0.2592781327764397
18475.0,24851.0,-0.2887227982845615
18485.0,24819.0,-0.32208259600496425
18495.0,24779.0,-0.3581055093541448
18505.0,24744.0,-0.39520278705338313
18515.0,24718.0,-0.4316215472900739
18525.0,24705.0,-0.46561387591140035
18535.0,24713.0,-0.4955858293002884
18545.0,24714.0,-0.5202145330879868
18554.0,24728.0,-0.5385279832043091
18564.0,24734.0,-0.5499480789646766
18574.0,24735.0,-0.554301331172572
18585.0,24753.0,-0.551803414023427
18595.0,24761.0,-0.5430241127037342
18605.0,24764.0,-0.5288393675534617
18615.0,24763.0,-0.5103770408606452
18625.0,24767.0,-0.488961810585968
18635.0,24765.0,-0.4660624031101624
18645.0,24742.0,-0.4432422624358166
18655.0,24734.0,-0.4221126045300487
18665.0,24725.0,-0.4042841415287462
18675.0,24725.0,-0.39131179995276355
18685.0,24733.0,-0.38462721615234885
18694.0,24750.0,-0.3854567083490763
18704.0,24766.0,-0.3947267390248244
18714.0,24796.0,-0.41296361713781365
18725.0,24815.0,-0.44019853794487207
18735.0,24821.0,-0.4758922436966642
18745.0,24820.0,-0.5188945210802419
18755.0,24805.0,-0.5674514930272211
18765.0,24767.0,-0.6192685289692816
18775.0,24695.0,-0.6716293428818779
18785.0,24644.0,-0.7215625672004344
18795.0,24620.0,-0.7660372777110173
18805.0,24602.0,-0.8021629966185325
18815.0,24590.0,-0.827370802789073
18825.0,24597.0,-0.8395582164567673
18834.0,24623.0,-0.8371874408070489
18844.0,24658.0,-0.8193332692774813
18854.0,24687.0,-0.7856840678521503
18865.0,24719.0,-0.7365055563969396
18875.0,24746.0,-0.6725805938090248
18885.0,24774.0,-0.5951384220555476
18895.0,24776.0,-0.5057848834937524
18905.0,24796.0,-0.40644162451008375
18915.0,24802.0,-0.2992975884636123
18925.0,24807.0,-0.18677139016630082
18935.0,24809.0,-0.07147950742506139
18945.0,24841.0,0.04379733337338444
18955.0,24874.0,0.15615794562967827
18965.0,24903.0,0.2626406186137384
18974.0,24939.0,0.3603004958940304
18984.0,24964.0,0.4463014505360205
18994.0,24989.0,0.5180171036044376
19005.0,25014.0,0.5731346193914705
19015.0,25021.0,0.6097546364309578
19025.0,25029.0,0.626480969254366
19035.0,25044.0,0.6224945946686774
19045.0,25046.0,0.597607387902597
19055.0,25029.0,0.5522913882265722
19065.0,24999.0,0.48768000809859285
19075.0,24982.0,0.4055401976982973
19085.0,24958.0,0.30821832389686765
19095.0,24941.0,0.1985647587549793
19105.0,24909.0,0.07984199740256598
19114.0,24893.0,-0.04437995560453978
19124.0,24863.0,-0.17033783993216528
19134.0,24836.0,-0.2941961496685587
19145.0,24819.0,-0.41217200250078634
19155.0,24801.0,-0.5206608615535295
19165.0,24767.0,-0.616360236894376
19175.0,24745.0,-0.6963884190491385
19185.0,24732.0,-0.7583941100945292
19195.0,24695.0,-0.8006511106465366
19205.0,24683.0,-0.8221310274993737
19215.0,24690.0,-0.8225461803132157
19225.0,24710.0,-0.802355301056333
19235.0,24740.0,-0.7627280229158412
19245.0,24769.0,-0.705469953423201
19254.0,24801.0,-0.632915490878905
19264.0,24825.0,-0.5477985571950764
19274.0,24857.0,-0.45311197372470924
19285.0,24884.0,-0.3519651512246651
19295.0,24908.0,-0.2474481576373068
19305.0,24940.0,-0.14250863420632584
19315.0,24960.0,-0.0398465173701614
19325.0,24974.0,0.058169949678618854
19335.0,24996.0,0.14956515288795527
19345.0,25001.0,0.23279434841274213
19355.0,25027.0,0.30676148531707936
19365.0,25039.0,0.3708198651040388
19375.0,25064.0,0.4247586881006363
19385.0,25081.0,0.4687773837803767
19394.0,25085.0,0.5034482629166487
19404.0,25091.0,0.5296674935419515
19414.0,25090.0,0.5485952905459752
19425.0,25101.0,0.5615878954321195
19435.0,25105.0,0.5701249727250176
19445.0,25106.0,0.5757358164872438
19455.0,25108.0,0.5799270086226093
19465.0,25102.0,0.584113952075829
19475.0,25106.0,0.5895591600450362
19485.0,25115.0,0.5973206137247097
19495.0,25128.0,0.6082130274418944
19505.0,25134.0,0.6227831985800811
19515.0,25148.0,0.6412986299994515
19525.0,25159.0,0.6637473851912152
19534.0,25171.0,0.6898467056707768
19544.0,25176.0,0.7190578203691355
19554.0,25171.0,0.7506047901742422
19565.0,25190.0,0.7834965389658728
19575.0,25185.0,0.8165528033654139
19585.0,25204.0,0.8484353998811598
19595.0,25206.0,0.8776857902542434
19605.0,25208.0,0.9027692026272343
19615.0,25211.0,0.9221252040625285
19625.0,25213.0,0.9342248008315474
19635.0,25222.0,0.9376343058274494
19645.0,25219.0,0.9310855819319391
19655.0,25232.0,0.9135509189713311
19665.0,25243.0,0.8843191928060782
19674.0,25242.0,0.843068077331959
19684.0,25245.0,0.7899252270063377
19694.0,25232.0,0.7255106059694064
19705.0,25226.0,0.6509530337361007
19715.0,25204.0,0.5678759352251955
19725.0,25178.0,0.47834962844857104
19735.0,25150.0,0.3848102695180314
19745.0,25114.0,0.28994881014538226
19755.0,25074.0,0.19657659479598982
19765.0,25041.0,0.10747714575048292
19775.0,25017.0,0.025255882073524305
19785.0,24991.0,-0.04779979295647404
19795.0,24983.0,-0.10983883531888167
19805.0,24974.0,-0.15953471971870778
19814.0,24980.0,-0.19613808177464032
19824.0,24977.0,-0.21949212190200665
19834.0,24982.0,-0.23001232888835788
19845.0,25008.0,-0.2286344309635169
19855.0,25012.0,-0.21673631569313068
19865.0,25024.0,-0.19604149264363238
19875.0,25042.0,-0.16851270252436976
19885.0,25052.0,-0.13624388440654045
19895.0,25050.0,-0.101357682118831
19905.0,25049.0,-0.06591416686317991
19915.0,25066.0,-0.03183393106531506
19925.0,25058.0,-0.000836191930656144
19935.0,25077.0,0.025608492811014256
19944.0,25072.0,0.0463112080045007
19954.0,25074.0,0.0603835579120065
19964.0,25069.0,0.06724296136402787
19974.0,25064.0,0.06660576586532897
19985.0,25064.0,0.05847059400435198
19995.0,25054.0,0.04309479444292843
20005.0,25061.0,0.020966594157127927
20015.0,25046.0,-0.007225209234896195
20025.0,25038.0,-0.04062299398237089
20035.0,25034.0,-0.07823279854573242
20045.0,25021.0,-0.11895667430600479
20055.0,25015.0,-0.16162406195871573
20065.0,25014.0,-0.20502179326749168
20074.0,25005.0,-0.2479229899599158
20084.0,24995.0,-0.28911591189759633
20094.0,24980.0,-0.32743410254599936
20104.0,24966.0,-0.3617883527393831
20115.0,24968.0,-0.3911995488285746
20125.0,24962.0,-0.4148306831744834
20135.0,24956.0,-0.4320168127192912
20145.0,24957.0,-0.44229270709067636
20155.0,24953.0,-0.44541823117062523
20165.0,24948.0,-0.44140120910064784
20175.0,24939.0,-0.4305169497202313
20185.0,24949.0,-0.4133226918850301
20195.0,24941.0,-0.3906644179989881
20205.0,24944.0,-0.363673470062258
20214.0,24939.0,-0.333750763893244
20224.0,24933.0,-0.30253633365446586
20234.0,24934.0,-0.27186153789557255
20244.0,24944.0,-0.24368123157236937
20255.0,24971.0,-0.21998451516402173
20265.0,24984.0,-0.20268600897738398
20275.0,25000.0,-0.19350413556162016
20285.0,25021.0,-0.19383653362135952
20295.0,25032.0,-0.20464445502810732
20305.0,25021.0,-0.22635833014623769
20315.0,25007.0,-0.25881546393060356
20325.0,24999.0,-0.301237319487552
20335.0,24978.0,-0.3522492045341623
20345.0,24940.0,-0.4099413856028792
20354.0,24924.0,-0.4719676349390178
20364.0,24890.0,-0.535674123029536
20374.0,24857.0,-0.5982490806529307
20384.0,24828.0,-0.6568822713688655
20395.0,24815.0,-0.7089224847524821
20405.0,24791.0,-0.7520213240100845
20415.0,24787.0,-0.7842532246577697
20425.0,24795.0,-0.8042043898645757
20435.0,24797.0,-0.8110266592080289
20445.0,24796.0,-0.804456070364113
20455.0,24810.0,-0.7847988391583609
20465.0,24823.0,-0.752888822217846
20475.0,24828.0,-0.7100212040931955
20485.0,24849.0,-0.6578679082942914
20494.0,24859.0,-0.5983805822390221
20504.0,24872.0,-0.53368685052596
20514.0,24885.0,-0.46598515280332076
20524.0,24893.0,-0.39744275085898856
20535.0,24913.0,-0.3301004955207824
20545.0,24929.0,-0.2657872629874342
20555.0,24942.0,-0.2060469979178973
20565.0,24947.0,-0.15208163506111683
20575.0,24948.0,-0.10471276943604396
20585.0,24950.0,-0.06436332801988058
20595.0,24953.0,-0.031058411190687158
20605.0,24959.0,-0.004443071953026331
20615.0,24957.0,0.016185449367424262
20625.0,24956.0,0.031833154176963536
20634.0,24961.0,0.04375434072475946
20644.0,24959.0,0.05338835698483456
20654.0,24951.0,0.062290091873855466
20664.0,24948.0,0.07205635022995444
20675.0,24951.0,0.08425091964504693
20685.0,24946.0,0.10033172618440254
20695.0,24955.0,0.1215832545886524
20705.0,24956.0,0.14905666323922576
20715.0,24957.0,0.18351930676171962
20725.0,24960.0,0.22541501086928786
20735.0,24972.0,0.2748365703965499
20745.0,24994.0,0.3315119489692857
20755.0,25006.0,0.39480459218217756
20765.0,25015.0,0.4637264553510896
20774.0,25030.0,0.5369613632469947
20784.0,25030.0,0.6128969138180987
20794.0,25037.0,0.6896645778161883
20804.0,25049.0,0.7651890869778196
20815.0,25067.0,0.8372489712070936
20825.0,25080.0,0.903549408795221
20835.0,25085.0,0.9618066388704373
20845.0,25106.0,1.009841461896971
20855.0,25115.0,1.0456783873633138
20865.0,25113.0,1.067646086964303
20875.0,25126.0,1.074473948652525
20885.0,25141.0,1.0653791646650457
20895.0,25132.0,1.0401382310627956
20905.0,25126.0,0.9991357576689641
20914.0,25112.0,0.9433836983814265
20924.0,25088.0,0.8745062621488886
20934.0,25053.0,0.7946887682599091
20944.0,25017.0,0.7065919855804217
20955.0,24989.0,0.613237020846032
20965.0,24949.0,0.5178686807101175
20975.0,24926.0,0.4238065211987698
20985.0,24901.0,0.33429273095918277
20995.0,24883.0,0.25234500987453995
21005.0,24851.0,0.18062100148274607
21015.0,24837.0,0.12129949224615344
21025.0,24819.0,0.07598314927055994
21035.0,24809.0,0.0456273472791751
21045.0,24818.0,0.03049864479193239
21054.0,24807.0,0.030164545872149867
21064.0,24807.0,0.043513988680095504
21074.0,24807.0,0.06880670541337777
21084.0,24820.0,0.10374949145278956
21095.0,24830.0,0.14559717841244402
21105.0,24844.0,0.1912747550641072
21115.0,24855.0,0.23751530028819026
21125.0,24867.0,0.2810071913705205
21135.0,24871.0,0.3185436668048553
21145.0,24879.0,0.34716807135659256
21155.0,24881.0,0.36430876164359094
21165.0,24881.0,0.3678983750895474
21175.0,24885.0,0.3564727129653776
21185.0,24866.0,0.3292449083620956
21194.0,24862.0,0.286151194477303
21204.0,24843.0,0.22786576716242044
21214.0,24806.0,0.1557837874416857
21224.0,24792.0,0.07197339154897103
21235.0,24783.0,-0.0209005367138258
21245.0,24756.0,-0.1196774665433774
21255.0,24729.0,-0.22082495045130107
21265.0,24701.0,-0.32058337866638265
21275.0,24676.0,-0.4151287781293571
21285.0,24629.0,-0.500748448483926
21295.0,24603.0,-0.5740220853676323
21305.0,24569.0,-0.6319987411888692
21315.0,24553.0,-0.6723581234823781
21324.0,24527.0,-0.6935444534288636
21334.0,24513.0,-0.6948621865928069
21344.0,24507.0,-0.676524328965339
21354.0,24537.0,-0.6396459590718699
21364.0,24578.0,-0.5861794269907157
21375.0,24626.0,-0.5187945951394597
21385.0,24662.0,-0.4407158024424254
21395.0,24684.0,-0.35553334033248923
21405.0,24712.0,-0.2670085931447783
21415.0,24730.0,-0.17888923837418189
21425.0,24734.0,-0.09474658145903499
21435.0,24738.0,-0.01784276342764578
21445.0,24731.0,0.048968893605975033
21455.0,24727.0,0.10331162794916908
21464.0,24727.0,0.14332582627712542
21474.0,24729.0,0.16768893944104502
21484.0,24722.0,0.17562093230525933
21494.0,24720.0,0.16687997504582272
21504.0,24727.0,0.1417514472880636
21515.0,24709.0,0.10103169981402813
21525.0,24712.0,0.04600626345577553
21535.0,24701.0,-0.02157914644526754
21545.0,24701.0,-0.09955732817266265
21555.0,24679.0,-0.18539137274573297
21565.0,24658.0,-0.27624334063464373
21575.0,24624.0,-0.36906248054432655
21585.0,24598.0,-0.46069275663601417
21595.0,24556.0,-0.5479960106546178
21604.0,24531.0,-0.6279841491319863
21614.0,24501.0,-0.6979516924766728
21624.0,24472.0,-0.7555990336052653
21634.0,24464.0,-0.7991368517666423
21644.0,24467.0,-0.8273632983840843
21655.0,24465.0,-0.8397082437050017
21665.0,24470.0,-0.8362427596329723
21675.0,24476.0,-0.8176553712247104
21685.0,24482.0,-0.7851983012005901
21695.0,24497.0,-0.7406075342253873
21705.0,24514.0,-0.6860009586137312
21715.0,24543.0,-0.6237596398251494
21725.0,24568.0,-0.5563987081378778
21735.0,24588.0,-0.48643605382066624
21744.0,24606.0,-0.4162679767749187
21754.0,24613.0,-0.34806023856316914
21764.0,24629.0,-0.28366073912974443
21774.0,24626.0,-0.22453721865672696
21784.0,24632.0,-0.1717407188145363
21795.0,24641.0,-0.12589325854065736
21805.0,24650.0,-0.0871966838876065
21815.0,24660.0,-0.0554595097967762
21825.0,24666.0,-0.030139456275430476
21835.0,24658.0,-0.01040010711216432
21845.0,24662.0,0.00482021369298441
21855.0,24659.0,0.016730523617341682
21865.0,24653.0,0.026604598666500823
21875.0,24661.0,0.0356985325528379
21884.0,24660.0,0.04517299996507945
21894.0,24657.0,0.05602402908389977
21904.0,24649.0,0.0690252978538353
21914.0,24657.0,0.08468490928456354
21924.0,24670.0,0.10321977114554652
21935.0,24679.0,0.12454959566655219
21945.0,24699.0,0.1483099581921606
21955.0,24708.0,0.17388119982825637
21965.0,24722.0,0.20042829422218603
21975.0,24714.0,0.22694637155055503
21985.0,24724.0,0.2523075484201819
21995.0,24723.0,0.27530668348721926
22005.0,24720.0,0.2947054834720642
22015.0,24716.0,0.3092753877132561
22024.0,24717.0,0.3178403252840974
22034.0,24713.0,0.31932090098657145
22044.0,24711.0,0.31278135645307936
22054.0,24704.0,0.2974798830013185
22064.0,24714.0,0.2729219953511431
22075.0,24716.0,0.23891546568275343
22085.0,24718.0,0.19562330725389923
22095.0,24715.0,0.1436090898255811
22105.0,24714.0,0.08386768745988815
22115.0,24699.0,0.01783473574651731
22125.0,24681.0,-0.052630733285812165
22135.0,24661.0,-0.1252938217032465
22145.0,24634.0,-0.19762176065959683
22155.0,24613.0,-0.26688949734001266
22164.0,24590.0,-0.33030736502387226
22174.0,24565.0,-0.38516345616690956
22184.0,24538.0,-0.42897203393795
22194.0,24513.0,-0.4596181140907692
22204.0,24506.0,-0.4754871562857615
22215.0,24509.0,-0.47556861581349696
22225.0,24513.0,-0.4595240610143684
22235.0,24533.0,-0.4277143811204575
22245.0,24551.0,-0.3811848377550734
22255.0,24576.0,-0.32161038128227
22265.0,24585.0,-0.2512064517452729
22275.0,24618.0,-0.1726119741733073
22285.0,24641.0,-0.0887515533012383
22295.0,24668.0,-0.0026841010753338914
22304.0,24701.0,0.08255408896338767
22314.0,24729.0,0.1641029636348279
22324.0,24738.0,0.23941978210846604
22334.0,24761.0,0.30639898760016426
22344.0,24767.0,0.36346421303855264
22355.0,24767.0,0.4096284465358482
22365.0,24780.0,0.44452092445406965
22375.0,24777.0,0.46838149081709746
22385.0,24770.0,0.4820247041275841
22395.0,24769.0,0.4867770781225139
22405.0,24767.0,0.484392048235477
22415.0,24763.0,0.4769480979214133
22425.0,24760.0,0.46673538112827806
22435.0,24747.0,0.45613574782107363
22444.0,24744.0,0.44750113335592445
22454.0,24742.0,0.4430357351322994
22464.0,24732.0,0.444687576278787
22474.0,24738.0,0.4540546429929933
22484.0,24747.0,0.47231003466224575
22495.0,24757.0,0.500149321441385
22505.0,24770.0,0.5377613263710043
22515.0,24780.0,0.5848215763251019
22525.0,24800.0,0.6405065282984005
22535.0,24815.0,0.7035261908075772
22545.0,24841.0,0.7721722930109061
22555.0,24853.0,0.8443785108228729
22565.0,24869.0,0.9177888432282657
22575.0,24882.0,0.989830588176443
22584.0,24884.0,1.0577895125046608
22594.0,24892.0,1.1188863007694785
22604.0,24899.0,1.1703547990243983
22614.0,24908.0,1.209523380747328
22624.0,24908.0,1.2339004211811901
22635.0,24915.0,1.2412637150427983
22645.0,24920.0,1.2297524094565426
22655.0,24924.0,1.1979586015317119
22665.0,24916.0,1.145013963489774
22675.0,24906.0,1.0706652600540305
22685.0,24903.0,0.9753321561694748
22695.0,24881.0,0.8601408999910952
22705.0,24860.0,0.7269276449618381
22715.0,24820.0,0.5782058510285132
22724.0,24777.0,0.41709431773702643
22734.0,24726.0,0.2472059160277247
22744.0,24654.0,0.07250129206488622
22754.0,24601.0,-0.1028837747284976
22764.0,24548.0,-0.27482468681374383
22775.0,24493.0,-0.43939310984742597
22785.0,24451.0,-0.5930261484258386
22795.0,24417.0,-0.7326667512531587
22805.0,24385.0,-0.8558651200357686
22815.0,24345.0,-0.9608347288660578
22825.0,24340.0,-1.046461772284196
22835.0,24334.0,-1.1122726573082795
22845.0,24335.0,-1.1583688578227782
22855.0,24339.0,-1.1853405534930037
22864.0,24353.0,-1.1941700449192345
22874.0,24365.0,-1.1861341624325572
22884.0,24377.0,-1.1627126560583692
22894.0,24399.0,-1.1255072026729218
22904.0,24416.0,-1.0761735359420415
22915.0,24431.0,-1.0163679084213695
22925.0,24440.0,-0.9477088962935311
22935.0,24463.0,-0.8717556480129419
22945.0,24466.0,-0.7900030594809355
22955.0,24464.0,-0.7038928491606297
22965.0,24477.0,-0.6148371195411407
22975.0,24474.0,-0.5242481047220702
22985.0,24481.0,-0.4335656886634899
22995.0,24497.0,-0.3442736715608224
23004.0,24524.0,-0.2578966246511093
23014.0,24565.0,-0.1759719952759029
23024.0,24588.0,-0.09999702115466529
23034.0,24625.0,-0.031355375562047816
23044.0,24658.0,0.02876769037941074
23055.0,24682.0,0.07947094204527776
23065.0,24701.0,0.12021189809291642
23075.0,24704.0,0.15085963174882017
23085.0,24713.0,0.17171691168390116
23095.0,24695.0,0.18350665876700978
23105.0,24679.0,0.18732195464933876
23115.0,24661.0,0.1845434093487642
23125.0,24642.0,0.17673204957137145
23135.0,24634.0,0.1655087942326085
23144.0,24623.0,0.1524322835072162
23154.0,24623.0,0.13888563112250868
23164.0,24611.0,0.1259803999075086
23174.0,24608.0,0.11448373184400745
23184.0,24615.0,0.10477270680344099
23195.0,24617.0,0.09681825063221787
23205.0,24627.0,0.09019853555080318
23215.0,24632.0,0.0841391045807154
23225.0,24620.0,0.07757494121391759
23235.0,24619.0,0.06922918823991678
23245.0,24626.0,0.057704105469007186
23255.0,24617.0,0.04158073078219934
23265.0,24620.0,0.019523375539285733
23275.0,24620.0,-0.00961580605092827
23284.0,24631.0,-0.046697640986425475
23294.0,24617.0,-0.09220854440296532
23304.0,24610.0,-0.1461921111223029
23314.0,24607.0,-0.20820637179213514
23324.0,24583.0,-0.27731163792945357
23335.0,24568.0,-0.3520919432606466
23345.0,24533.0,-0.4307109498091228
23355.0,24494.0,-0.511000156409418
23365.0,24455.0,-0.5905733972421456
23375.0,24418.0,-0.6669576595852285
23385.0,24400.0,-0.7377274224271522
23395.0,24380.0,-0.8006294365280489
23405.0,24363.0,-0.8536877237141209
23415.0,24351.0,-0.8952836045545938
23424.0,24335.0,-0.9242105130707119
23434.0,24326.0,-0.93970633022233
23444.0,24319.0,-0.9414667712303412
23454.0,24327.0,-0.9296428876267007
23464.0,24347.0,-0.9048247675843256
23475.0,24363.0,-0.8680123807427947
23485.0,24393.0,-0.8205733606146118
23495.0,24412.0,-0.764186582469749
23505.0,24430.0,-0.7007702850779388
23515.0,24465.0,-0.6323949313527819
23525.0,24483.0,-0.561183917269131
23535.0,24510.0,-0.489208292364414
23545.0,24528.0,-0.41838328538715785
23555.0,24554.0,-0.3503743081939027
23564.0,24572.0,-0.2865191965574244
23574.0,24577.0,-0.22777245400903984
23584.0,24578.0,-0.17467571211235247
23594.0,24596.0,-0.12735593608183268
23604.0,24594.0,-0.08555002751306606
23615.0,24595.0,-0.04865279847916525
23625.0,24596.0,-0.01578442520612065
23635.0,24589.0,0.014127692967476615
23645.0,24584.0,0.04225913159639533
23655.0,24581.0,0.06979821735902172
23665.0,24585.0,0.09786340527665695
23675.0,24595.0,0.12743573224690155
23685.0,24612.0,0.15931182838552801
23695.0,24633.0,0.19407982142070948
23704.0,24652.0,0.23211692511923043
23714.0,24668.0,0.27360447115137576
23724.0,24679.0,0.31855446468474796
23734.0,24690.0,0.3668417488502129
23744.0,24708.0,0.41823705134526495
23755.0,24712.0,0.472437553445377
23765.0,24734.0,0.5290925800296464
23775.0,24743.0,0.5878226653517897
23785.0,24762.0,0.6482307059637958
23795.0,24767.0,0.7099042170767833
23805.0,24778.0,0.7724082994813145
23815.0,24787.0,0.835270113304988
23825.0,24796.0,0.8979570356940406
23835.0,24816.0,0.95985154618609
23844.0,24815.0,1.0202259461999375
23854.0,24827.0,1.0782197275149146
23864.0,24818.0,1.132822607779156
23874.0,24837.0,1.1828671391440078
23884.0,24847.0,1.2270353140262398
23895.0,24852.0,1.263882545052474
23905.0,24866.0,1.2918801177443926
23915.0,24866.0,1.3094751420363036
23925.0,24869.0,1.3151657784733923
23935.0,24879.0,1.3075887121636673
23945.0,24882.0,1.2856149525143403
23955.0,24892.0,1.2484485469147275
23965.0,24894.0,1.1957208115043916
23975.0,24890.0,1.1275709925138755
23984.0,24884.0,1.0447035941375342
23994.0,24859.0,0.9484132955704239
24004.0,24815.0,0.8405706517440658
24014.0,24790.0,0.7235658050172992
24024.0,24744.0,0.600212463705048
24035.0,24699.0,0.4736186291897099
24045.0,24660.0,0.3470332870014599
24055.0,24612.0,0.22368022912356217
24065.0,24575.0,0.10659149342370393
24075.0,24539.0,-0.0015467491451045508
24085.0,24514.0,-0.09852370676988106
24095.0,24509.0,-0.18269864446055878
24105.0,24500.0,-0.2530539912139498
24115.0,24497.0,-0.30920483499792545
24124.0,24500.0,-0.3513672657087188
24134.0,24503.0,-0.3802911527927129
24144.0,24505.0,-0.39716478434084745
24154.0,24530.0,-0.403499930060314
24164.0,24529.0,-0.4010067486546283
24175.0,24543.0,-0.3914686449159352
24185.0,24559.0,-0.3766270944419153
24195.0,24543.0,-0.3580851930431146
24205.0,24549.0,-0.3372364030388063
24215.0,24527.0,-0.31522148843017106
24225.0,24547.0,-0.29291248601715536
24235.0,24539.0,-0.2709196548570927
24245.0,24534.0,-0.24961668969152437
24255.0,24536.0,-0.22917973733996247
24264.0,24528.0,-0.20963531492494436
24274.0,24534.0,-0.19091143028418586
24284.0,24529.0,-0.1728860994949147
24294.0,24542.0,-0.15542815296277276
24304.0,24551.0,-0.13842654297773924
24315.0,24565.0,-0.12180638096916445
24325.0,24580.0,-0.10553238928826007
24335.0,24586.0,-0.08960262535976865
24345.0,24588.0,-0.0740364844751998
24355.0,24589.0,-0.05886069731748389
24365.0,24600.0,-0.04409564268477242
24375.0,24597.0,-0.02974297336539859
24385.0,24607.0,-0.01577510308151349
24395.0,24611.0,-0.002127156429049409
24404.0,24616.0,0.011307935411995372
24414.0,24625.0,0.024680388653905816
24424.0,24619.0,0.0381797141287899
24434.0,24628.0,0.05202554844226495
24444.0,24634.0,0.06645339031822471
24455.0,24636.0,0.08169598921316526
24465.0,24650.0,0.09796104931598446
24475.0,24652.0,0.1154055617810111
24485.0,24650.0,0.1341069441449805
24495.0,24646.0,0.154031695649905
24505.0,24651.0,0.17500373227117685
24515.0,24658.0,0.19667607371490545
24525.0,24659.0,0.21850979630372103
24535.0,24665.0,0.23976322616884171
24544.0,24672.0,0.25949334930172613
24554.0,24680.0,0.2765707044370403
24564.0,24671.0,0.28970824690827934
24574.0,24677.0,0.29750411278172373
24584.0,24687.0,0.298498210717552
24595.0,24689.0,0.2912421849507295
24605.0,24698.0,0.27438064754836333
24615.0,24699.0,0.24673946901153676
24625.0,24706.0,0.20741541430464347
24635.0,24696.0,0.1558605598657134
24645.0,24698.0,0.09195462349225252
24655.0,24678.0,0.016058743160420743
24665.0,24672.0,-0.07095472650871533
24675.0,24644.0,-0.1677004031312495
24684.0,24616.0,-0.27230825086102955
24694.0,24595.0,-0.3824820427882853
24704.0,24547.0,-0.4955852275564903
24714.0,24513.0,-0.6087489991517964
24724.0,24493.0,-0.7189949880543396
24735.0,24464.0,-0.8233634672961737
24745.0,24446.0,-0.9190384211113108
24755.0,24427.0,-1.0034626500801298
24765.0,24414.0,-1.074437729848352
24775.0,24399.0,-1.1302047656909504
24785.0,24398.0,-1.1695028207604772
24795.0,24418.0,-1.1916029924400813
24805.0,24415.0,-1.1963180723387365
24815.0,24434.0,-1.1839904162215409
24824.0,24442.0,-1.1554624989523656
24834.0,24446.0,-1.1120347184872275
24844.0,24447.0,-1.055413778338817
24854.0,24458.0,-0.9876528120968228
24864.0,24489.0,-0.9110821709480267
24875.0,24505.0,-0.8282292852764523
24885.0,24533.0,-0.7417277494381248
24895.0,24564.0,-0.6542180866484829
24905.0,24595.0,-0.5682442414449801
24915.0,24618.0,-0.4861510441094483
24925.0,24654.0,-0.40998884101198885
24935.0,24678.0,-0.3414318283917705
24945.0,24689.0,-0.2817164671939742
24955.0,24698.0,-0.2316054393885573
24964.0,24700.0,-0.19138021315219125
24974.0,24698.0,-0.1608618494546129
24984.0,24693.0,-0.13945650329442766
24994.0,24698.0,-0.1262198183367551
25004.0,24697.0,-0.11993334272422437
25015.0,24695.0,-0.11918637366882388
25025.0,24699.0,-0.12245771667487627
25035.0,24693.0,-0.12819287935117035
25045.0,24704.0,-0.13487306614112418
25055.0,24697.0,-0.14107328646298561
25065.0,24704.0,-0.14550794711118695
25075.0,24702.0,-0.14706316742380487
25085.0,24724.0,-0.14481571191199677
25095.0,24729.0,-0.13803949742159055
25104.0,24733.0,-0.12620229969085991
25114.0,24742.0,-0.1089564221557094
25124.0,24739.0,-0.08612667723586041
25134.0,24755.0,-0.057697650609415674
25144.0,24766.0,-0.023801135536841826
25155.0,24774.0,0.015295531788876137
25165.0,24784.0,0.05919912067760069
25175.0,24788.0,0.10739711305305068
25185.0,24797.0,0.15926120257735463
25195.0,24805.0,0.21404885883571867
25205.0,24820.0,0.270904952303812
25215.0,24827.0,0.3288655268629953
25225.0,24842.0,0.38686535533558825
25235.0,24856.0,0.44375036856093236
25244.0,24866.0,0.4982955123729035
25254.0,24872.0,0.5492280245896857
25264.0,24867.0,0.5952559894388215
25274.0,24880.0,0.6351027172898723
25284.0,24892.0,0.6675482574055926
25295.0,24897.0,0.6914787628174749
25305.0,24909.0,0.7059423833838158
25315.0,24916.0,0.7102082523954008
25325.0,24917.0,0.7038237872821421
25335.0,24914.0,0.6866648554043275
25345.0,24912.0,0.6589734469958277
25355.0,24901.0,0.6213782952662616
25365.0,24894.0,0.574894885510631
25375.0,24872.0,0.5209023075396442
25384.0,24846.0,0.4610957645233175
25394.0,24819.0,0.3974156464749149
25404.0,24784.0,0.3319567911756191
25414.0,24766.0,0.26686409192439514
