timestamp_ms,ir_value
4887,24800
4897,24756
4907,24735
4917,24720
4927,24719
4937,24718
4947,24743
4957,24760
4967,24794
4977,24817
4987,24863
4997,24894
5007,24933
5017,24953
5027,24985
5037,25011
5046,25041
5057,25044
5067,25054
5077,25045
5086,25026
5097,25016
5107,24995
5117,24988
5126,24973
5137,24962
5147,24951
5157,24963
5166,24961
5177,24970
5187,24984
5197,24990
5206,25002
5217,25017
5227,25030
5237,25054
5246,25071
5257,25094
5267,25104
5277,25118
5286,25140
5297,25147
5307,25161
5317,25168
5326,25183
5337,25191
5347,25220
5357,25219
5367,25234
5377,25230
5387,25227
5397,25180
5407,25119
5417,25037
5427,24984
5437,24927
5447,24887
5457,24856
5467,24817
5477,24794
5487,24791
5497,24779
5507,24796
5516,24807
5527,24836
5537,24854
5547,24884
5556,24910
5567,24930
5577,24960
5587,24982
5596,25007
5607,25030
5617,25050
5627,25051
5636,25055
5647,25029
5657,25023
5667,24995
5677,24985
5687,24962
5697,24955
5707,24950
5717,24944
5727,24941
5737,24946
5746,24957
5757,24975
5767,24981
5777,24995
5786,25004
5797,25031
5807,25040
5817,25062
5826,25067
5837,25087
5847,25094
5857,25104
5866,25126
5877,25126
5887,25143
5897,25137
5906,25162
5917,25160
5927,25164
5937,25141
5947,25099
5957,25027
5967,24968
5976,24906
5987,24849
5997,24789
6007,24753
6016,24702
6027,24693
6037,24675
6047,24680
6056,24675
6067,24693
6077,24724
6087,24742
6096,24770
6107,24798
6117,24826
6127,24844
6136,24883
6147,24888
6157,24919
6167,24927
6176,24939
6187,24931
6197,24917
6207,24910
6216,24902
6227,24887
6237,24871
6246,24863
6257,24852
6267,24846
6277,24851
6286,24854
6297,24857
6307,24870
6317,24881
6326,24894
6337,24911
6347,24929
6357,24941
6366,24961
6377,24977
6387,24999
6397,25003
6406,25027
6417,25044
6427,25050
6437,25069
6446,25082
6457,25093
6467,25103
6477,25093
6486,25071
6497,24999
6507,24939
6517,24871
6526,24817
6537,24744
6547,24698
6556,24649
6566,24612
6577,24583
6587,24572
6596,24557
6607,24555
6617,24558
6627,24571
6636,24590
6647,24616
6657,24650
6667,24690
6676,24722
6687,24755
6697,24792
6707,24812
6716,24840
6727,24834
6737,24852
6747,24838
6756,24843
6767,24824
6777,24821
6787,24801
6796,24802
6807,24793
6817,24801
6827,24804
6836,24808
6847,24809
6857,24837
6867,24847
6876,24870
6887,24877
6897,24912
6907,24922
6916,24949
6927,24959
6937,24987
6947,24997
6956,25024
6967,25028
6977,25048
6987,25066
6996,25085
7007,25092
7017,25110
7026,25111
7036,25086
7047,25019
7057,24953
7066,24884
7076,24828
7087,24764
7097,24727
7106,24673
7116,24641
7127,24623
7137,24618
7146,24626
7156,24643
7167,24653
7177,24689
7186,24720
7196,24753
7207,24789
7217,24823
7226,24858
7236,24887
7247,24929
7257,24955
7266,24974
7276,24979
7287,24967
7297,24960
7306,24943
7316,24931
7327,24925
7337,24904
7346,24903
7357,24891
7367,24898
7377,24890
7386,24905
7397,24911
7407,24926
7417,24939
7426,24966
7437,24974
7447,24993
7457,25012
7466,25031
7477,25043
7487,25071
7496,25080
7506,25096
7517,25103
7527,25117
7536,25133
7546,25143
7557,25151
7567,25165
7576,25139
7586,25094
7597,25018
7607,24954
7616,24899
7626,24835
7637,24785
7647,24742
7656,24713
7667,24677
7677,24684
7687,24670
7696,24694
7707,24702
7717,24734
7727,24770
7736,24802
7747,24830
7757,24869
7766,24896
7776,24930
7787,24957
7797,24988
7806,24993
7816,25005
7827,24992
7837,24983
7846,24964
7856,24943
7867,24936
7877,24914
7886,24912
7896,24894
7907,24893
7917,24891
7926,24901
7936,24910
7947,24929
7957,24942
7966,24959
7976,24976
7987,24999
7997,25015
8006,25038
8017,25045
8027,25074
8037,25077
8046,25093
8057,25103
8067,25124
8076,25128
8086,25143
8097,25149
8107,25151
8116,25126
8126,25074
8137,24992
8147,24928
8156,24863
8166,24804
8177,24750
8187,24702
8196,24664
8206,24637
8217,24615
8227,24613
8236,24620
8246,24624
8257,24648
8267,24664
8276,24703
8286,24724
8297,24761
8307,24785
8316,24835
8326,24852
8337,24884
8347,24900
8356,24913
8366,24904
8377,24907
8387,24878
8396,24872
8406,24843
8417,24846
8427,24828
8436,24822
8446,24816
8457,24820
8467,24824
8476,24835
8486,24845
8497,24860
8507,24878
8516,24890
8526,24912
8537,24938
8547,24964
8556,24975
8566,24991
8577,25010
8587,25020
8596,25037
8606,25043
8617,25065
8627,25072
8636,25080
8646,25081
8657,25074
8666,25025
8676,24966
8686,24890
8697,24830
8706,24765
8716,24697
8726,24648
8737,24601
8746,24559
8756,24548
8766,24518
8777,24506
8786,24505
8796,24512
8806,24532
8817,24581
8826,24606
8836,24646
8846,24682
8857,24719
8866,24752
8876,24785
8886,24801
8897,24819
8906,24822
8916,24816
8926,24812
8937,24801
8946,24788
8956,24780
8966,24762
8977,24759
8986,24752
8996,24761
9006,24756
9017,24763
9026,24765
9036,24782
9046,24787
9057,24814
9066,24824
9076,24841
9086,24858
9097,24879
9106,24885
9116,24910
9126,24926
9137,24947
9146,24948
9156,24974
9166,24979
9177,24998
9186,25000
9196,25011
9206,24992
9217,24960
9226,24894
9236,24826
9246,24754
9257,24691
9266,24628
9276,24569
9286,24510
9297,24474
9306,24427
9316,24393
9326,24374
9337,24403
9346,24435
9356,24476
9366,24516
9377,24563
9386,24605
9396,24647
9406,24677
9417,24720
9427,24758
9436,24777
9446,24792
9457,24806
9467,24794
9476,24792
9486,24785
9497,24777
9506,24760
9516,24753
9526,24742
9537,24742
9546,24737
9556,24738
9566,24743
9577,24765
9586,24768
9596,24787
9606,24798
9617,24824
9626,24839
9636,24860
9646,24873
9657,24900
9666,24919
9676,24933
9686,24951
9697,24981
9706,24991
9716,25008
9726,25017
9737,25047
9746,25043
9756,25055
9766,25041
9777,25015
9786,24945
9796,24882
9806,24805
9817,24751
9826,24683
9836,24628
9846,24587
9857,24548
9866,24524
9876,24506
9886,24497
9897,24492
9906,24512
9916,24544
9927,24592
9937,24624
9946,24671
9956,24703
9967,24748
9977,24782
9986,24817
9996,24839
10007,24865
10017,24862
10026,24859
10036,24852
10047,24836
10057,24824
10066,24813
10076,24798
10087,24795
10096,24781
10106,24776
10116,24785
10127,24787
10136,24795
10146,24804
10156,24813
10167,24828
10176,24849
10186,24850
10196,24873
10207,24889
10216,24907
10226,24916
10236,24945
10247,24941
10256,24968
10266,24971
10277,24997
10287,24992
10296,25017
10306,25009
10317,25015
10327,24974
10336,24916
10346,24842
10357,24766
10366,24700
10376,24626
10386,24547
10397,24500
10406,24433
10416,24396
10426,24351
10437,24352
10446,24370
10456,24400
10466,24446
10477,24496
10486,24528
10496,24570
10506,24607
10517,24642
10526,24666
10536,24694
10546,24709
10557,24728
10566,24738
10576,24739
10586,24726
10597,24726
10606,24717
10616,24705
10626,24695
10637,24679
10646,24687
10656,24660
10666,24689
10677,24684
10686,24692
10696,24699
10706,24717
10717,24721
10726,24744
10736,24756
10747,24779
10757,24795
10766,24814
10776,24829
10787,24852
10797,24860
10806,24876
10816,24887
10827,24910
10836,24923
10846,24932
10856,24940
10867,24950
10876,24933
10886,24903
10896,24842
10907,24783
10916,24702
10926,24634
10936,24559
10947,24482
10956,24420
10966,24342
10976,24281
10987,24257
10996,24264
11006,24280
11016,24325
11027,24366
11036,24402
11046,24437
11056,24486
11067,24523
11076,24553
11086,24579
11096,24616
11107,24630
11116,24651
11126,24649
11136,24656
11147,24643
11156,24634
11166,24622
11176,24622
11187,24605
11196,24594
11206,24577
11216,24573
11227,24569
11236,24572
11246,24579
11256,24591
11267,24603
11276,24630
11286,24649
11296,24681
11307,24695
11316,24720
11326,24736
11336,24776
11347,24787
11356,24803
11366,24819
11376,24830
11387,24850
11396,24863
11406,24879
11417,24895
11426,24902
11436,24913
11446,24908
11457,24872
11466,24808
11476,24753
11486,24671
11497,24609
11506,24536
11516,24468
11526,24409
11537,24345
11546,24298
11556,24286
11566,24317
11577,24338
11586,24384
11596,24413
11606,24467
11617,24505
11626,24551
11636,24578
11646,24621
11657,24651
11666,24685
11676,24708
11687,24727
11696,24733
11706,24723
11716,24724
11727,24716
11736,24696
11746,24680
11756,24679
11767,24658
11776,24660
11786,24650
11796,24652
11807,24650
11816,24660
11826,24657
11836,24675
11847,24684
11856,24703
11866,24711
11876,24726
11887,24741
11896,24760
11906,24781
11917,24791
11926,24804
11936,24818
11946,24832
11957,24850
11966,24856
11976,24877
11986,24883
11997,24895
12006,24909
12016,24913
12026,24922
12037,24892
12046,24848
12056,24771
12066,24722
12077,24637
12086,24588
12096,24509
12106,24455
12117,24374
12126,24318
12136,24282
12147,24285
12156,24305
12166,24333
12176,24365
12187,24409
12196,24440
12206,24485
12216,24517
12227,24554
12236,24579
12246,24601
12256,24631
12267,24646
12276,24654
12286,24653
12296,24654
12307,24637
12316,24634
12326,24612
12336,24602
12347,24588
12356,24586
12366,24559
12376,24564
12387,24549
12396,24564
12406,24564
12416,24588
12427,24592
12436,24620
12446,24627
12456,24659
12467,24667
12476,24694
12486,24699
12496,24722
12507,24732
12516,24745
12526,24750
12536,24777
12547,24788
12556,24806
12566,24819
12576,24830
12586,24845
12596,24854
12606,24848
12617,24812
12626,24754
12636,24693
12646,24630
12657,24558
12666,24482
12676,24407
12686,24323
12697,24283
12706,24267
12716,24278
12726,24303
12737,24335
12746,24371
12756,24416
12766,24460
12777,24513
12786,24556
12796,24602
12806,24648
12817,24690
12826,24727
12836,24743
12846,24769
12857,24764
12866,24772
12876,24752
12886,24753
12897,24726
12906,24736
12916,24721
12926,24721
12937,24731
12946,24731
12956,24736
12966,24762
12976,24771
12986,24791
12996,24804
13007,24829
13016,24844
13026,24870
13036,24890
13047,24901
13056,24917
13066,24930
13076,24944
13087,24953
13096,24967
13106,24971
13116,24993
13127,24992
13136,25000
13146,25011
13156,24998
13166,24971
13176,24923
13186,24851
13197,24775
13206,24699
13216,24620
13226,24554
13237,24481
13246,24417
13256,24338
13266,24297
13277,24275
13286,24302
13296,24330
13306,24377
13317,24409
13326,24456
13336,24489
13346,24535
13357,24558
13366,24602
13376,24624
13386,24651
13397,24670
13406,24681
13416,24678
13426,24677
13437,24662
13446,24652
13456,24637
13466,24633
13477,24609
13486,24603
13496,24600
13506,24592
13516,24580
13526,24588
13536,24591
13546,24600
13556,24613
13566,24636
13576,24643
13586,24673
13596,24690
13606,24709
13616,24727
13626,24739
13636,24752
13646,24782
13656,24791
13667,24807
13676,24824
13686,24831
13696,24846
13707,24831
13716,24801
13726,24742
13736,24681
13747,24601
13756,24535
13766,24447
13776,24387
13787,24292
13796,24235
13806,24209
13816,24219
13827,24229
13836,24273
13846,24290
13856,24350
13867,24371
13876,24420
13886,24448
13896,24494
13907,24519
13916,24553
13926,24572
13936,24601
13947,24613
13956,24625
13966,24615
13976,24620
13987,24600
13996,24598
14006,24575
14016,24576
14027,24564
14036,24551
14046,24537
14056,24542
14067,24535
14076,24541
14086,24547
14096,24563
14106,24574
14116,24589
14126,24614
14136,24625
14146,24651
14157,24670
14166,24689
14176,24707
14186,24732
14197,24741
14206,24762
14216,24766
14226,24792
14237,24796
14246,24807
14256,24766
14266,24738
14277,24661
14286,24600
14296,24520
14306,24433
14316,24355
14327,24254
14336,24175
14346,24126
14356,24122
14367,24123
14376,24161
14386,24189
14396,24223
14406,24283
14417,24322
14426,24373
14436,24401
14446,24449
14457,24479
14466,24519
14476,24530
14486,24559
14496,24571
14506,24568
14516,24577
14526,24570
14536,24561
14547,24540
14556,24531
14566,24513
14576,24515
14586,24498
14596,24490
14606,24482
14616,24493
14626,24497
14637,24506
14646,24522
14656,24529
14666,24554
14677,24564
14686,24587
14696,24603
14706,24632
14716,24665
14727,24670
14736,24694
14746,24708
14756,24733
14767,24737
14776,24759
14786,24758
14796,24776
14806,24765
14816,24717
14826,24672
14836,24603
14846,24537
14857,24452
14866,24377
14876,24291
14886,24208
14896,24161
14906,24140
14916,24158
14926,24165
14936,24207
14947,24232
14956,24278
14966,24308
14976,24360
14986,24387
14996,24438
15006,24472
15016,24508
15026,24542
15037,24555
15046,24576
15056,24580
15066,24575
15076,24565
15086,24550
15096,24543
15106,24508
15116,24500
15127,24467
15136,24454
15146,24434
15156,24430
15166,24421
15177,24425
15186,24446
15196,24445
15206,24479
15216,24484
15226,24504
15236,24527
15246,24538
15256,24562
15266,24571
15276,24595
15286,24615
15296,24636
15306,24657
15317,24670
15326,24686
15336,24691
15346,24710
15356,24701
15366,24656
15376,24607
15386,24531
15396,24461
15406,24368
15416,24272
15426,24185
15436,24131
15446,24110
15457,24106
15466,24116
15476,24134
15486,24167
15496,24211
15507,24246
15516,24279
15526,24323
15536,24363
15546,24401
15557,24435
15566,24473
15576,24486
15586,24507
15596,24512
15606,24515
15616,24516
15626,24499
15636,24493
15647,24476
15656,24466
15666,24443
15676,24443
15686,24430
15697,24440
15706,24440
15716,24444
15726,24468
15736,24478
15746,24512
15756,24530
15766,24555
15776,24586
15787,24612
15796,24642
15806,24664
15816,24687
15826,24697
15836,24728
15846,24743
15856,24758
15866,24785
15877,24800
15886,24807
15896,24788
15906,24764
15916,24699
15926,24635
15936,24573
15946,24495
15956,24418
15967,24345
15976,24270
15986,24202
15996,24196
16006,24207
16016,24235
16026,24281
16036,24323
16046,24394
16057,24444
16066,24489
16076,24540
16086,24585
16097,24619
16106,24646
16116,24684
16126,24700
16137,24708
16146,24712
16156,24699
16166,24697
16177,24673
16186,24659
16196,24631
16206,24629
16217,24612
16226,24607
16236,24600
16246,24600
16256,24589
16266,24599
16276,24607
16286,24610
16296,24627
16306,24638
16316,24653
16326,24663
16336,24684
16347,24690
16356,24708
16366,24710
16376,24742
16386,24745
16396,24777
16406,24791
16416,24811
16426,24827
16437,24819
16446,24804
16456,24735
16466,24685
16476,24612
16486,24550
16496,24490
16506,24428
16516,24375
16526,24297
16536,24263
16546,24249
16556,24257
16566,24293
16577,24321
16586,24371
16596,24415
16606,24469
16616,24514
16626,24567
16636,24608
16646,24645
16656,24684
16666,24708
16676,24731
16686,24734
16696,24738
16706,24704
16716,24696
16726,24666
16736,24654
16746,24624
16756,24622
16766,24606
16776,24594
16786,24588
16796,24587
16806,24598
16816,24601
16826,24616
16836,24633
16846,24644
16856,24677
16866,24692
16876,24725
16886,24735
16896,24761
16906,24768
16916,24792
16926,24805
16936,24823
16946,24831
16956,24840
16966,24822
16976,24765
16986,24708
16996,24634
17006,24580
17016,24509
17027,24443
17036,24388
17046,24323
17056,24268
17066,24221
17076,24245
17086,24270
17096,24295
17106,24349
17117,24391
17126,24438
17136,24474
17146,24522
17156,24551
17166,24582
17176,24615
17186,24640
17196,24651
17206,24651
17216,24655
17226,24639
17236,24619
17246,24616
17256,24602
17266,24585
17276,24563
17286,24553
17296,24560
17307,24552
17316,24553
17326,24557
17336,24565
17346,24562
17356,24581
17366,24588
17376,24595
17386,24613
17397,24629
17406,24635
17416,24643
17426,24675
17436,24686
17446,24705
17456,24723
17466,24736
17476,24722
17487,24678
17496,24630
17506,24549
17516,24484
17526,24408
17537,24323
17546,24232
17556,24140
17566,24101
17576,24089
17586,24101
17596,24119
17606,24150
17616,24181
17626,24209
17636,24251
17646,24282
17656,24322
17666,24355
17677,24394
17686,24425
17696,24441
17706,24469
17716,24476
17726,24475
17736,24461
17746,24447
17756,24431
17766,24399
17776,24390
17786,24374
17796,24349
17806,24346
17816,24328
17826,24337
17836,24339
17846,24356
17856,24380
17866,24391
17876,24418
17886,24437
17896,24464
17906,24494
17916,24513
17926,24535
17936,24554
17946,24575
17956,24594
17967,24612
17976,24618
17986,24600
17996,24574
18006,24513
18017,24436
18026,24359
18036,24262
18046,24165
18056,24076
18067,24020
18076,24013
18086,23994
18096,24006
18106,24027
18117,24047
18126,24084
18136,24114
18146,24154
18156,24192
18167,24225
18176,24256
18186,24281
18196,24321
18206,24340
18217,24365
18226,24382
18236,24375
18246,24375
18256,24369
18266,24349
18276,24340
18286,24317
18296,24308
18306,24282
18316,24278
18326,24283
18336,24276
18346,24292
18356,24295
18366,24316
18376,24330
18386,24360
18396,24387
18406,24398
18416,24432
18426,24458
18436,24475
18446,24508
18456,24521
18466,24539
18476,24566
18486,24581
18496,24590
18506,24557
18516,24518
18526,24466
18536,24391
18546,24315
18556,24219
18566,24140
18576,24071
18586,24045
18596,24065
18606,24077
18616,24115
18626,24158
18636,24207
18646,24262
18657,24304
18666,24354
18676,24396
18686,24436
18696,24473
18707,24513
18716,24546
18726,24562
18736,24571
18746,24558
18756,24567
18766,24547
18776,24539
18786,24523
18797,24511
18806,24496
18816,24472
18826,24466
18836,24474
18847,24452
18856,24465
18866,24462
18876,24472
18887,24477
18896,24500
18906,24511
18916,24540
18926,24562
18937,24594
18946,24608
18956,24617
18966,24639
18976,24641
18986,24656
18996,24668
19006,24659
19016,24631
19027,24582
19036,24518
19046,24431
19056,24361
19066,24285
19077,24172
19086,24085
19096,24035
19106,24017
19116,24022
19127,24040
19136,24060
19146,24087
19156,24111
19166,24148
19177,24177
19186,24212
19196,24221
19206,24249
19216,24274
19227,24300
19236,24318
19246,24318
19256,24310
19266,24310
19277,24298
19286,24277
19296,24254
19306,24228
19316,24214
19327,24190
19336,24186
19346,24175
19356,24182
19366,24185
19376,24186
19386,24213
19396,24213
19406,24231
19416,24252
19426,24269
19437,24290
19446,24307
19456,24317
19466,24333
19476,24353
19487,24366
19496,24385
19506,24394
19516,24402
19526,24404
19537,24369
19546,24326
19556,24274
19566,24216
19576,24152
19586,24082
19597,24044
19606,24026
19616,24024
19626,24053
19636,24081
19647,24130
19656,24184
19666,24241
19676,24289
19687,24347
19696,24408
19706,24454
19716,24492
19726,24545
19737,24567
19746,24606
19756,24638
19766,24641
19776,24662
19787,24649
19796,24651
19806,24641
19816,24642
19826,24639
19837,24637
19846,24637
19856,24636
19866,24648
19877,24652
19886,24669
19896,24685
19906,24703
19916,24725
19927,24746
19936,24773
19946,24777
19956,24803
19967,24821
19976,24830
19986,24854
19996,24856
20006,24867
20017,24869
20026,24881
20036,24893
20046,24892
20057,24874
20066,24816
20076,24758
20086,24686
20096,24627
20107,24561
20116,24507
20126,24462
20136,24442
20147,24416
20156,24415
20166,24429
20176,24444
20186,24475
20197,24501
20206,24526
20216,24558
20226,24582
20237,24608
20247,24625
20256,24652
20266,24656
20276,24674
20287,24678
20296,24683
20306,24675
20316,24677
20326,24668
20337,24660
20346,24650
20356,24636
20366,24652
20377,24646
20386,24646
20396,24649
20406,24663
20416,24677
20427,24691
20436,24710
20446,24709
20456,24733
20467,24752
20476,24761
20486,24773
20496,24790
20506,24811
20517,24818
20526,24825
20536,24839
20546,24870
20557,24869
20566,24894
20576,24903
20586,24921
20597,24949
20607,24948
20616,24941
20626,24886
20636,24829
20647,24743
20656,24699
20666,24632
20676,24579
20687,24538
20696,24500
20706,24482
20716,24479
20726,24487
20737,24498
20746,24533
20756,24551
20766,24582
20777,24605
20786,24643
20796,24652
20806,24680
20817,24693
20826,24725
20836,24725
20846,24750
20857,24745
20866,24741
20876,24727
20886,24733
20897,24710
20906,24720
20916,24702
20926,24712
20937,24698
20946,24708
20956,24706
20966,24725
20977,24731
20986,24757
20996,24755
21006,24783
21017,24793
21026,24813
21036,24815
21046,24839
21057,24844
21066,24865
21076,24876
21086,24891
21097,24899
21106,24917
21116,24924
21126,24929
21137,24925
21146,24951
21156,24956
21166,24967
21177,24979
21186,24992
21196,24986
21206,24987
21217,24948
21226,24885
21236,24807
21246,24750
21257,24687
21266,24646
21276,24598
21286,24572
21297,24537
21306,24546
21316,24537
21326,24577
21337,24604
21346,24653
21356,24696
21367,24750
21377,24780
21386,24828
21396,24843
21407,24882
21417,24912
21426,24941
21436,24955
21447,24967
21456,24974
21466,24960
21476,24950
21487,24950
21496,24942
21506,24934
21516,24931
21527,24931
21536,24941
21546,24946
21556,24960
21567,24970
21576,24997
21586,25013
21596,25044
21607,25052
21616,25083
21626,25093
21637,25119
21647,25133
21656,25155
21666,25155
21677,25172
21687,25181
21696,25188
21706,25193
21717,25200
21726,25203
21736,25219
21746,25224
21757,25232
21766,25231
21776,25239
21786,25215
21797,25176
21806,25096
21816,25012
21827,24937
21837,24856
21846,24825
21856,24780
21867,24773
21877,24752
21886,24765
21896,24761
21907,24782
21916,24804
21926,24833
21936,24854
21947,24894
21956,24911
21966,24927
21976,24935
21987,24942
21996,24968
22006,24963
22017,24980
22027,24977
22036,24971
22046,24963
22057,24949
22067,24937
22076,24941
22086,24928
22097,24924
22106,24912
22116,24919
22126,24921
22137,24930
22146,24941
22156,24954
22166,24961
22177,24981
22186,24992
22196,25009
22206,25017
22217,25031
22226,25047
22236,25049
22247,25063
22257,25070
22266,25087
22276,25089
22287,25101
22297,25104
22306,25122
22316,25123
22327,25135
22337,25141
22346,25156
22356,25156
22367,25158
22376,25147
22386,25108
22396,25030
22407,24959
22416,24884
22426,24826
22436,24767
22447,24740
22456,24708
22466,24705
22476,24687
22487,24697
22496,24707
22506,24725
22516,24744
22527,24780
22536,24803
22546,24830
22556,24841
22567,24862
22576,24873
22586,24900
22596,24903
22607,24909
22616,24912
22626,24909
22636,24900
22647,24885
22656,24872
22666,24866
22676,24865
22687,24852
22696,24841
22706,24854
22716,24844
22727,24860
22737,24861
22746,24876
22756,24889
22767,24906
22777,24919
22786,24937
22796,24952
22807,24975
22817,24982
22826,25004
22836,25015
22847,25035
22857,25046
22866,25062
22876,25056
22887,25076
22897,25089
22906,25099
22916,25108
22927,25125
22937,25130
22946,25142
22956,25145
22967,25153
22977,25134
22986,25088
22996,25005
23007,24931
23017,24862
23026,24805
23036,24767
23047,24743
23057,24714
23066,24710
23076,24706
23087,24721
23097,24743
23106,24774
23116,24807
23127,24854
23137,24880
23146,24909
23156,24938
23167,24958
23177,24977
23186,25009
23196,25015
23207,25024
23216,25029
23226,25024
23236,24998
23247,24987
23256,24970
23266,24953
23276,24936
23287,24931
23296,24922
23306,24923
23317,24926
23327,24936
23336,24950
23346,24957
23357,24977
23367,24989
23376,25023
23386,25030
23397,25061
23407,25066
23416,25090
23426,25101
23437,25131
23447,25141
23456,25148
23466,25161
23477,25171
23486,25181
23496,25193
23507,25190
23517,25207
23526,25219
23536,25233
23547,25243
23557,25244
23566,25247
23576,25213
23587,25150
23596,25058
23606,24979
23616,24908
23627,24866
23636,24837
23646,24812
23657,24810
23667,24808
23676,24824
23686,24829
23697,24873
23707,24893
23716,24938
23726,24970
23737,25008
23746,25037
23756,25050
23767,25078
23777,25093
23786,25127
23796,25133
23807,25142
23817,25136
23826,25125
23836,25100
23847,25086
23856,25058
23866,25044
23877,25023
23887,25016
23896,25009
23906,25012
23917,25023
23927,25028
23936,25047
23946,25066
23957,25093
23966,25094
23976,25127
23987,25144
23997,25157
24006,25172
24016,25194
24027,25216
24037,25221
24046,25239
24056,25248
24067,25261
24076,25266
24086,25279
24097,25288
24107,25279
24116,25293
24126,25300
24137,25310
24147,25284
24156,25229
24167,25143
24177,25047
24186,24968
24196,24918
24207,24885
24217,24848
24226,24836
24236,24824
24247,24844
24257,24841
24266,24875
24277,24900
24287,24933
24296,24963
24306,25002
24317,25037
24327,25065
24336,25089
24346,25097
24357,25129
24367,25145
24376,25161
24386,25163
24397,25153
24406,25131
24416,25109
24427,25091
24437,25074
24446,25065
24456,25039
24467,25036
24477,25028
24486,25035
24496,25033
24507,25053
24516,25066
24526,25074
24537,25087
24547,25111
24556,25135
24566,25136
24577,25162
24587,25173
24596,25194
24606,25197
24617,25211
24626,25224
24636,25234
24647,25244
24657,25255
24666,25255
24676,25260
24687,25272
24697,25272
24706,25277
24716,25244
24727,25195
24737,25109
24746,25022
24756,24959
24767,24909
24776,24864
24786,24837
24797,24806
24807,24804
24816,24795
24826,24799
24837,24812
24847,24835
24856,24867
24866,24888
24877,24931
24887,24953
24896,24995
24906,25008
24917,25040
24927,25059
24936,25085
24946,25092
24957,25107
24966,25098
24976,25085
24987,25060
24997,25053
25006,25026
25016,25019
25027,24988
25037,24981
25046,24978
25056,24978
25067,24997
25077,25007
25086,25014
25096,25026
25107,25055
25117,25056
25126,25082
25136,25087
25147,25109
25157,25108
25166,25128
25176,25128
25187,25155
25197,25151
25206,25169
25216,25171
25227,25186
25237,25195
25246,25209
25256,25215
25267,25228
25277,25209
25286,25162
25296,25077
25307,25000
25317,24926
25326,24884
25336,24837
25347,24818
25357,24793
25366,24788
25376,24779
25387,24789
25397,24802
25406,24832
25416,24852
25427,24897
25437,24925
25446,24967
25456,24991
25467,25034
25477,25050
25486,25083
25496,25107
25507,25140
25517,25147
25526,25149
25537,25138
25547,25129
25556,25098
25566,25092
25577,25062
25587,25058
25596,25047
25606,25043
25617,25041
25627,25049
25636,25060
25646,25065
25657,25087
25667,25096
25676,25134
25686,25150
25697,25181
25707,25210
25716,25228
25727,25242
25737,25275
25746,25290
25756,25301
25767,25328
25777,25337
25786,25361
25796,25361
25807,25395
25817,25383
25826,25378
25837,25331
25847,25248
25856,25144
25866,25059
25877,24997
25887,24941
25896,24926
25906,24904
25917,24909
25927,24913
25936,24940
25946,24964
25957,25016
25967,25054
25976,25100
25987,25146
25997,25200
26006,25242
26016,25278
26027,25316
26037,25342
26046,25373
26056,25390
26067,25398
26076,25384
26086,25362
26097,25330
26107,25299
26116,25274
26126,25229
26137,25212
26147,25204
26156,25197
26167,25192
26177,25203
26186,25210
26196,25211
26207,25236
26217,25243
26226,25267
26237,25283
26247,25309
26256,25325
26266,25343
26277,25361
26287,25377
26296,25395
26306,25398
26317,25422
26327,25424
26336,25450
26347,25454
26357,25449
26366,25407
26376,25319
26387,25213
26397,25115
26406,25048
26416,24991
26427,24964
26437,24941
26446,24932
26457,24931
26467,24950
26476,24957
26486,24986
26497,25016
26507,25060
26516,25088
26526,25114
26537,25152
26547,25172
26556,25201
26567,25222
26577,25249
26586,25265
26596,25265
26607,25244
26617,25239
26626,25213
26636,25179
26647,25161
26657,25127
26666,25120
26676,25091
26687,25101
26697,25100
26706,25101
26717,25106
26727,25118
26736,25134
26746,25151
26757,25162
26767,25187
26776,25196
26786,25214
26797,25236
26807,25241
26816,25264
26827,25272
26837,25293
26847,25293
26856,25310
26867,25317
26877,25320
26886,25293
26896,25226
26907,25138
26917,25052
26926,24971
26936,24928
26947,24885
26957,24856
26966,24835
26976,24833
26987,24831
26997,24836
27006,24851
27016,24888
27027,24916
27037,24935
27046,24972
27056,24996
27067,25030
27077,25049
27086,25080
27096,25091
27107,25119
27117,25114
27126,25125
27136,25103
27147,25091
27157,25067
27166,25052
27177,25031
27187,25021
27197,25012
27206,25004
27217,24998
27227,25009
27237,25006
27246,25005
27257,25028
27267,25042
27277,25047
27286,25066
27297,25082
27307,25091
27317,25104
27326,25121
27337,25127
27347,25143
27357,25161
27366,25176
27377,25187
27387,25210
27397,25214
27406,25213
27417,25181
27427,25117
27437,25033
27446,24956
27457,24890
27467,24858
27477,24802
27486,24780
27497,24748
27507,24742
27517,24726
27526,24745
27536,24753
27547,24791
27557,24810
27566,24831
27576,24871
27587,24892
27597,24927
27606,24943
27616,24975
27627,24995
27637,25010
27647,25011
27656,25014
27667,24996
27677,24988
27687,24959
27696,24950
27707,24935
27717,24939
27727,24926
27736,24933
27746,24921
27757,24946
27767,24943
27776,24966
27786,24983
27797,25000
27807,25022
27816,25049
27826,25062
27837,25080
27847,25104
27856,25118
27866,25137
27877,25149
27887,25175
27896,25170
27906,25198
27917,25210
27927,25232
27937,25240
27946,25238
27957,25217
27967,25162
27977,25064
27986,24975
27997,24915
28007,24873
28017,24825
28026,24797
28037,24780
28047,24776
28057,24766
28066,24786
28077,24808
28087,24847
28097,24878
28106,24915
28117,24937
28127,24975
28137,24997
28146,25023
28157,25050
28167,25075
28176,25088
28186,25087
28197,25084
28207,25068
28216,25044
28226,25035
28237,25012
28247,24990
28256,24983
28267,24967
28277,24980
28287,24966
28296,24981
28307,24991
28317,25007
28327,25025
28336,25045
28347,25064
28357,25084
28366,25102
28376,25119
28387,25126
28397,25147
28406,25165
28417,25174
28427,25187
28437,25194
28446,25203
28457,25208
28467,25227
28477,25213
28486,25211
28497,25150
28507,25081
28517,24991
28526,24924
28537,24877
28547,24836
28556,24795
28566,24777
28577,24763
28587,24764
28596,24762
28606,24786
28617,24806
28627,24834
28636,24876
28647,24892
28657,24932
28667,24945
28676,24973
28687,24991
28697,25006
28707,25015
28716,25026
28727,25021
28737,25013
28747,24984
28756,24979
28767,24956
28777,24937
28787,24925
28796,24922
28807,24915
28817,24920
28827,24923
28836,24948
28847,24942
28857,24973
28867,24976
28876,24994
28887,25008
28897,25035
28907,25039
28916,25065
28927,25067
28937,25093
28947,25110
28956,25115
28967,25120
28977,25147
28987,25149
28996,25177
29007,25165
29017,25161
29027,25111
29036,25035
29047,24946
29057,24891
29067,24821
29076,24787
29087,24746
29097,24717
29107,24692
29116,24698
29127,24698
29137,24708
29147,24735
29156,24757
29166,24795
29177,24811
29187,24844
29196,24861
29206,24886
29217,24903
29227,24919
29237,24934
29246,24940
29257,24937
29267,24934
29277,24922
29286,24915
29297,24894
29307,24888
29317,24879
29326,24886
29337,24866
29347,24871
29357,24878
29366,24882
29376,24899
29387,24908
29397,24930
29407,24938
29416,24960
29427,24964
29437,24987
29447,24989
29456,25014
29467,25017
29477,25030
29487,25042
29496,25054
29506,25074
29517,25079
29527,25110
29537,25121
29546,25148
29557,25145
29567,25155
29577,25113
29586,25055
29597,24969
29607,24908
29617,24860
29626,24824
29637,24811
29647,24796
29657,24804
29666,24814
29676,24847
29687,24874
29697,24913
29707,24939
29716,24982
29727,25001
29737,25042
29747,25042
29756,25068
29767,25077
29777,25094
29787,25089
29796,25099
29807,25097
29817,25087
29827,25069
29836,25048
29847,25036
29857,25014
29867,25008
29876,25004
29886,25002
29897,25000
29907,25019
29917,25026
29926,25049
29937,25063
29947,25089
29957,25106
29966,25130
29977,25131
29987,25173
29997,25177
30006,25188
30017,25198
30027,25216
30037,25218
30046,25232
30057,25243
30067,25253
30077,25262
30086,25269
30097,25282
30107,25281
30117,25295
30126,25288
30137,25273
30147,25205
30157,25119
30166,25034
30177,24959
30187,24906
30197,24883
30206,24860
30217,24845
30227,24848
30237,24861
30246,24883
30257,24916
30267,24945
30277,24985
30286,25025
30297,25063
30307,25088
30317,25113
30326,25136
30337,25155
30347,25168
30357,25188
30366,25187
30377,25176
30387,25153
30397,25142
30406,25119
30417,25098
30427,25080
30437,25068
30446,25056
30457,25072
30467,25065
30477,25086
30486,25095
30497,25120
30507,25129
30517,25150
30526,25171
30537,25191
30547,25208
30557,25223
30566,25233
30577,25254
30587,25269
30597,25278
30606,25289
30617,25295
30627,25312
30637,25313
30646,25323
30657,25330
30667,25341
30677,25344
30686,25334
30697,25298
30707,25223
30717,25126
30726,25042
30737,24975
30747,24928
30757,24900
30766,24880
30777,24870
30787,24878
30797,24884
30806,24909
30817,24941
30827,24985
30837,25007
30846,25051
30857,25076
30867,25108
30877,25125
30886,25155
30897,25171
30907,25191
30917,25195
30926,25204
30937,25174
30947,25168
30957,25145
30966,25126
30977,25099
30987,25084
30997,25072
31007,25068
31017,25068
31027,25079
31036,25084
31047,25101
31057,25116
31067,25136
31076,25162
31087,25180
31097,25198
31107,25220
31116,25233
31127,25244
31137,25260
31147,25269
31156,25278
31167,25292
31177,25298
31187,25302
31196,25317
31207,25309
31217,25324
31227,25309
31236,25293
31247,25223
31257,25141
31267,25046
31277,24976
31287,24915
31297,24877
31306,24853
31317,24842
31327,24824
31337,24826
31346,24834
31357,24863
31367,24872
31377,24910
31386,24944
31397,24962
31407,24992
31417,25015
31426,25037
31437,25048
31447,25071
31457,25084
31466,25083
31477,25073
31487,25068
31497,25047
31506,25035
31517,25004
31527,25009
31537,24983
31546,24991
31557,24982
31567,24995
31577,24986
31586,25003
31597,25014
31607,25038
31617,25039
31626,25060
31637,25074
31647,25091
31657,25106
31667,25122
31677,25129
31687,25150
31697,25157
31707,25170
31717,25173
31727,25189
31736,25189
31747,25202
31757,25211
31767,25222
31776,25210
31787,25188
31797,25113
31807,25041
31816,24948
31827,24893
31837,24837
31847,24808
31856,24769
31867,24754
31877,24741
31887,24744
31896,24756
31907,24771
