timestamp_ms,ir_value
4879,27318
4889,27328
4899,27333
4909,27328
4919,27319
4929,27298
4939,27265
4950,27243
4960,27213
4969,27189
4979,27175
4989,27168
4999,27175
5009,27178
5019,27200
5029,27214
5039,27218
5050,27227
5060,27247
5070,27248
5080,27257
5089,27259
5099,27262
5109,27262
5119,27269
5129,27276
5139,27287
5149,27290
5160,27281
5170,27282
5180,27286
5190,27291
5199,27284
5209,27288
5219,27274
5229,27286
5239,27283
5249,27283
5259,27293
5270,27288
5280,27281
5290,27288
5300,27291
5309,27295
5319,27299
5329,27291
5339,27295
5349,27294
5359,27299
5370,27309
5380,27307
5390,27300
5400,27304
5410,27307
5419,27307
5429,27307
5439,27295
5449,27303
5459,27313
5469,27311
5480,27315
5490,27317
5500,27304
5510,27313
5520,27313
5529,27301
5539,27296
5549,27262
5559,27237
5569,27210
5579,27193
5590,27179
5600,27178
5610,27175
5620,27186
5630,27191
5639,27204
5649,27222
5659,27221
5669,27237
5679,27233
5690,27253
5700,27261
5710,27252
5720,27255
5730,27271
5740,27276
5749,27279
5759,27287
5769,27281
5779,27294
5789,27288
5800,27291
5810,27289
5820,27292
5830,27275
5840,27282
5850,27282
5859,27290
5869,27292
5879,27288
5889,27293
5900,27290
5910,27299
5920,27294
5930,27294
5940,27299
5950,27302
5960,27308
5969,27312
5979,27312
5989,27305
6000,27309
6010,27314
6020,27322
6030,27321
6040,27318
6050,27319
6060,27309
6070,27316
6079,27310
6089,27306
6099,27308
6110,27301
6120,27304
6130,27314
6140,27310
6150,27303
6160,27280
6170,27266
6180,27242
6190,27212
6199,27182
6209,27157
6220,27136
6230,27143
6240,27137
6250,27153
6260,27167
6270,27174
6280,27191
6290,27201
6300,27214
6309,27224
6319,27229
6330,27232
6340,27242
6350,27245
6360,27250
6370,27271
6380,27264
6390,27259
6400,27254
6410,27264
6419,27269
6430,27262
6440,27262
6450,27264
6460,27249
6470,27251
6480,27255
6490,27246
6500,27242
6510,27249
6520,27259
6529,27264
6540,27259
6550,27250
6560,27265
6570,27265
6580,27272
6590,27280
6600,27275
6610,27270
6620,27281
6630,27281
6639,27282
6650,27288
6660,27283
6670,27286
6680,27288
6690,27298
6700,27298
6710,27288
6720,27290
6730,27290
6740,27297
6750,27294
6760,27299
6770,27284
6780,27281
6790,27270
6800,27244
6810,27212
6820,27186
6830,27148
6840,27156
6850,27152
6861,27163
6870,27174
6880,27181
6890,27198
6900,27206
6910,27222
6920,27224
6930,27228
6940,27240
6950,27252
6961,27258
6971,27260
6980,27273
6990,27268
7000,27268
7010,27270
7020,27279
7030,27269
7040,27268
7050,27262
7060,27265
7071,27269
7081,27264
7090,27267
7100,27266
7110,27260
7120,27269
7130,27270
7140,27273
7150,27267
7160,27264
7171,27268
7181,27268
7191,27275
7200,27273
7210,27265
7220,27273
7230,27280
7240,27282
7250,27289
7260,27294
7270,27282
7281,27292
7291,27293
7301,27300
7310,27305
7320,27303
7330,27297
7340,27302
7350,27308
7360,27295
7370,27287
7381,27258
7391,27251
7401,27213
7411,27184
7420,27178
7430,27167
7440,27164
7450,27173
7460,27187
7470,27202
7480,27217
7491,27221
7501,27231
7511,27241
7521,27249
7530,27261
7540,27266
7550,27263
7560,27271
7570,27283
7580,27283
7591,27289
7601,27278
7611,27283
7621,27284
7631,27290
7640,27287
7650,27278
7660,27273
7670,27283
7680,27273
7690,27282
7701,27279
7711,27282
7721,27291
7731,27284
7741,27281
7750,27282
7760,27285
7770,27263
7780,27262
7790,27274
7801,27284
7811,27286
7821,27273
7831,27276
7841,27279
7851,27274
7860,27282
7870,27289
7880,27288
7890,27297
7900,27296
7911,27311
7921,27304
7931,27289
7941,27290
7951,27266
7961,27257
7970,27235
7980,27195
7990,27160
8000,27151
8011,27135
8021,27153
8031,27148
8041,27159
8051,27182
8061,27190
8071,27212
8080,27221
8090,27226
8100,27226
8110,27241
8121,27240
8131,27247
8141,27260
8151,27256
8161,27268
8171,27269
8180,27280
8190,27275
8200,27279
8210,27270
8221,27268
8231,27273
8241,27267
8251,27271
8261,27265
8271,27275
8281,27260
8291,27272
8300,27279
8310,27266
8320,27270
8331,27278
8341,27285
8351,27289
8361,27284
8371,27273
8381,27288
8391,27282
8400,27294
8410,27297
8420,27279
8431,27297
8441,27290
8451,27301
8461,27302
8471,27294
8481,27295
8491,27300
8501,27311
8510,27310
8520,27300
8531,27282
8541,27263
8551,27234
8561,27194
8571,27163
8581,27145
8591,27131
8601,27134
8611,27138
8620,27158
8630,27160
8641,27172
8651,27193
8661,27205
8671,27218
8681,27223
8691,27224
8701,27236
8711,27238
8721,27248
8730,27252
8741,27252
8751,27253
8761,27257
8771,27260
8781,27265
8791,27261
8801,27254
8811,27248
8821,27254
8830,27262
8841,27258
8851,27252
8861,27258
8871,27255
8881,27264
8891,27258
8901,27258
8911,27252
8921,27260
8931,27271
8941,27278
8951,27270
8961,27265
8971,27274
8981,27276
8991,27276
9001,27279
9011,27273
9021,27273
9031,27282
9041,27285
9051,27287
9061,27278
9071,27270
9081,27281
9091,27286
9101,27292
9111,27290
9121,27272
9131,27262
9141,27233
9151,27211
9161,27175
9171,27133
9181,27125
9191,27108
9201,27120
9211,27126
9221,27138
9231,27143
9241,27158
9252,27175
9261,27197
9271,27201
9281,27198
9291,27200
9301,27219
9311,27226
9321,27232
9331,27234
9341,27242
9352,27240
9361,27240
9371,27246
9381,27234
9391,27247
9401,27248
9411,27244
9421,27237
9431,27239
9441,27241
9452,27235
9462,27240
9471,27239
9481,27241
9491,27244
9501,27245
9511,27254
9521,27261
9531,27263
9541,27261
9552,27266
9562,27267
9571,27273
9581,27277
9591,27267
9601,27283
9611,27280
9621,27287
9631,27295
9641,27298
9652,27286
9662,27293
9672,27309
9681,27308
9691,27316
9701,27312
9711,27316
9721,27302
9731,27310
9741,27292
9752,27258
9762,27241
9772,27204
9782,27179
9791,27152
9801,27146
9811,27146
9821,27150
9831,27168
9841,27184
9852,27191
9862,27202
9872,27225
9882,27228
9891,27252
9901,27257
9911,27253
9921,27266
9931,27274
9941,27282
9952,27284
9962,27287
9972,27277
9982,27275
9992,27278
10001,27284
10011,27265
10021,27269
10031,27279
10041,27278
10051,27274
10062,27271
10072,27264
10082,27274
10092,27266
10102,27275
10111,27289
10121,27287
10131,27280
10141,27289
10151,27293
10162,27299
10172,27296
10182,27300
10192,27304
10202,27310
10211,27310
10221,27312
10231,27307
10241,27317
10251,27307
10262,27318
10272,27323
10282,27316
10292,27322
10302,27320
10312,27330
10321,27327
10331,27325
10341,27321
10351,27322
10362,27327
10372,27305
10382,27282
10392,27249
10402,27210
10412,27197
10421,27185
10431,27185
10441,27185
10451,27204
10462,27217
10472,27226
10482,27237
10492,27247
10502,27261
10512,27273
10521,27285
10531,27290
10541,27305
10551,27310
10562,27313
10572,27318
10582,27320
10592,27322
10602,27318
10612,27321
10622,27320
10631,27329
10641,27316
10651,27307
10662,27313
10672,27298
10682,27300
10692,27307
10702,27295
10712,27301
10722,27304
10732,27313
10741,27305
10751,27303
10762,27310
10772,27312
10782,27318
10792,27320
10802,27323
10812,27315
10822,27321
10832,27323
10841,27329
10851,27331
10862,27323
10872,27337
10882,27338
10892,27345
10902,27340
10912,27343
10922,27353
10932,27351
10942,27359
10951,27355
10962,27329
10972,27319
10982,27275
10992,27242
11002,27216
11012,27195
11022,27192
11032,27188
11042,27191
11051,27209
11062,27222
11072,27219
11082,27237
11092,27248
11102,27269
11112,27280
11122,27284
11132,27304
11142,27306
11152,27321
11162,27321
11172,27317
11182,27317
11192,27320
11202,27319
11212,27325
11222,27318
11232,27309
11242,27304
11252,27304
11262,27305
11272,27308
11282,27306
11292,27311
11302,27316
11312,27314
11322,27319
11332,27314
11342,27313
11352,27321
11363,27331
11372,27334
11382,27317
11392,27334
11402,27337
11412,27341
11422,27339
11432,27331
11442,27335
11452,27340
11463,27342
11472,27352
11482,27340
11492,27349
11502,27350
11512,27363
11522,27360
11532,27365
11542,27358
11552,27353
11563,27329
11572,27299
11582,27253
11592,27200
11602,27194
11612,27177
11622,27176
11632,27190
11642,27193
11652,27202
11663,27220
11673,27228
11682,27244
11692,27267
11702,27264
11712,27287
11722,27276
11732,27290
11742,27295
11752,27305
11762,27306
11773,27304
11783,27313
11792,27314
11802,27308
11812,27311
11822,27306
11832,27309
11842,27306
11852,27311
11862,27309
11873,27302
11883,27302
11893,27301
11902,27313
11912,27309
11922,27301
11932,27309
11942,27304
11952,27312
11962,27318
11973,27311
11983,27318
11993,27322
12003,27324
12012,27336
12022,27331
12032,27331
12042,27334
12052,27348
12062,27348
12073,27344
12083,27339
12093,27345
12103,27351
12112,27356
12122,27352
12132,27341
12142,27352
12152,27344
12162,27335
12172,27315
12183,27291
12193,27245
12203,27211
12213,27185
12222,27176
12232,27164
12242,27161
12252,27176
12262,27179
12272,27198
12283,27221
12293,27229
12303,27236
12313,27245
12323,27261
12332,27271
12342,27272
12352,27271
12362,27277
12372,27281
12383,27296
12393,27292
12403,27284
12413,27293
12423,27282
12433,27295
12442,27294
12452,27283
12462,27288
12472,27292
12483,27285
12493,27294
12503,27288
12513,27287
12523,27289
12533,27291
12542,27294
12552,27306
12562,27293
12572,27310
12583,27305
12593,27319
12603,27318
12613,27309
12623,27307
12633,27318
12643,27323
12652,27330
12662,27320
12672,27316
12683,27321
12693,27330
12703,27331
12713,27325
12723,27322
12733,27331
12743,27334
12752,27342
12762,27341
12772,27334
12783,27340
12793,27330
12803,27338
12813,27316
12823,27295
12833,27251
12843,27202
12853,27184
12862,27159
12872,27136
12883,27129
12893,27141
12903,27166
12913,27164
12923,27182
12933,27185
12943,27210
12953,27225
12962,27240
12972,27253
12983,27252
12993,27261
13003,27261
13013,27280
13023,27287
13033,27281
13043,27293
13053,27287
13063,27291
13072,27294
13083,27276
13093,27283
13103,27282
13113,27289
13123,27281
13133,27286
13143,27278
13153,27276
13163,27285
13172,27281
13183,27289
13193,27276
13203,27290
13213,27302
13223,27301
13233,27306
13243,27299
13253,27307
13263,27312
13273,27309
13283,27316
13293,27319
13303,27317
13313,27317
13323,27321
13333,27336
13343,27326
13353,27320
13363,27324
13373,27331
13383,27329
13393,27335
13403,27328
13413,27338
13423,27340
13433,27349
13443,27341
13453,27334
13463,27325
13473,27306
13484,27281
13493,27244
13503,27202
13513,27177
13523,27158
13533,27162
13543,27159
13553,27163
13563,27172
13573,27196
13584,27210
13593,27222
13603,27226
13613,27239
13623,27260
13633,27270
13643,27285
13653,27288
13663,27296
13673,27303
13684,27303
13693,27308
13703,27305
13713,27302
13723,27306
13733,27309
13743,27306
13753,27312
13763,27303
13773,27299
13784,27291
13794,27297
13803,27295
13813,27294
13823,27295
13833,27303
13843,27304
13853,27313
13863,27326
13873,27306
13884,27311
13894,27304
13904,27315
13913,27316
13923,27313
13933,27309
13943,27321
13953,27328
13963,27333
13973,27342
13984,27328
13994,27329
14004,27314
14013,27315
14023,27315
14033,27314
14043,27310
14053,27307
14063,27316
14073,27323
14084,27312
14094,27305
14104,27291
14114,27280
14123,27239
14133,27193
14143,27161
14153,27148
14163,27135
14173,27143
14184,27145
14194,27144
14204,27167
14214,27177
14223,27200
14233,27206
14243,27221
14253,27226
14263,27234
14273,27249
14284,27265
14294,27278
14304,27275
14314,27276
14324,27277
14333,27288
14343,27286
14353,27282
14363,27282
14373,27277
14384,27278
14394,27272
14404,27259
14414,27261
14424,27254
14434,27265
14443,27262
14453,27262
14463,27263
14473,27270
14484,27274
14494,27287
14504,27285
14514,27279
14524,27290
14534,27305
14543,27305
14553,27291
14563,27288
14573,27302
14584,27304
14594,27301
14604,27303
14614,27295
14624,27299
14634,27293
14643,27306
14653,27298
14663,27307
14673,27303
14684,27308
14694,27321
14704,27325
14714,27315
14724,27305
14734,27296
14744,27283
14753,27253
14763,27218
14773,27179
14784,27161
14794,27149
14804,27153
14814,27146
14824,27140
14834,27166
14844,27172
14853,27181
14863,27203
14873,27210
14884,27228
14894,27227
14904,27240
14914,27246
14924,27250
14934,27251
14944,27257
14954,27260
14963,27258
14973,27258
14984,27243
14994,27250
15004,27244
15014,27241
15024,27241
15034,27236
15044,27230
15054,27233
15064,27230
15073,27234
15084,27232
15094,27231
15104,27231
15114,27247
15124,27255
15134,27255
15144,27251
15154,27264
15164,27270
15173,27261
15184,27272
15194,27264
15204,27268
15214,27275
15224,27278
15234,27280
15244,27277
15254,27281
15264,27281
15274,27285
15284,27291
15294,27282
15304,27285
15314,27284
15324,27275
15334,27276
15344,27253
15354,27231
15364,27190
15374,27147
15384,27120
15394,27095
15404,27078
15414,27079
15424,27080
15434,27091
15444,27108
15454,27108
15464,27129
15474,27136
15485,27148
15494,27168
15504,27166
15514,27167
15524,27181
15534,27191
15544,27202
15554,27203
15564,27207
15574,27216
15585,27214
15594,27224
15604,27223
15614,27208
15624,27221
15634,27207
15644,27221
15654,27206
15664,27198
15674,27204
15685,27198
15695,27211
15704,27216
15714,27220
15724,27212
15734,27225
15744,27227
15754,27230
15764,27239
15774,27226
15785,27236
15795,27243
15804,27250
15814,27252
15824,27241
15834,27241
15844,27246
15854,27258
15864,27255
15874,27253
15885,27256
15895,27259
15905,27262
15914,27254
15924,27235
15934,27195
15944,27157
15954,27114
15964,27088
15974,27062
15985,27040
15995,27039
16005,27050
16015,27062
16024,27076
16034,27090
16044,27095
16054,27115
16064,27134
16074,27134
16085,27147
16095,27141
16105,27161
16115,27165
16124,27181
16134,27186
16144,27183
16154,27203
16164,27198
16174,27200
16185,27207
16195,27202
16205,27204
16215,27192
16225,27202
16234,27197
16244,27181
16254,27180
16264,27184
16274,27194
16285,27194
16295,27202
16305,27194
16315,27208
16325,27209
16334,27219
16344,27219
16354,27218
16364,27224
16374,27227
16385,27233
16395,27244
16405,27236
16415,27240
16425,27247
16435,27245
16444,27257
16454,27246
16464,27255
16474,27261
16485,27267
16495,27260
16505,27260
16515,27230
16525,27198
16535,27148
16544,27113
16554,27076
16564,27038
16574,27035
16585,27025
16595,27034
16605,27048
16615,27061
16625,27067
16635,27099
16645,27111
16654,27126
16664,27141
16674,27139
16685,27156
16695,27158
16705,27179
16715,27175
16725,27185
16735,27201
16745,27203
16754,27207
16764,27218
16774,27211
16785,27215
16795,27207
16805,27214
16815,27212
16825,27210
16835,27196
16845,27202
16855,27207
16864,27208
16874,27207
16885,27196
16895,27215
16905,27218
16915,27232
16925,27232
16935,27233
16945,27237
16955,27235
16965,27246
16974,27250
16985,27254
16995,27246
17005,27257
17015,27256
17025,27264
17035,27264
17045,27263
17055,27266
17065,27268
17074,27279
17085,27275
17095,27263
17105,27279
17115,27277
17125,27277
17135,27289
17145,27285
17155,27285
17165,27285
17175,27284
17185,27276
17195,27225
17205,27172
17215,27134
17225,27095
17235,27067
17245,27052
17255,27034
17265,27046
17275,27052
17286,27074
17295,27095
17305,27107
17315,27130
17325,27139
17335,27161
17345,27172
17355,27167
17365,27183
17375,27190
17386,27197
17395,27210
17405,27217
17415,27211
17425,27226
17435,27213
17445,27223
17455,27212
17465,27211
17475,27207
17486,27195
17496,27193
17505,27191
17515,27187
17525,27189
17535,27195
17545,27200
17555,27207
17565,27209
17575,27202
17586,27221
17596,27221
17605,27235
17615,27234
17625,27229
17635,27240
17645,27233
17655,27250
17665,27253
17675,27249
17686,27250
17696,27255
17706,27256
17715,27253
17725,27257
17735,27250
17745,27253
17755,27264
17765,27258
17775,27259
17786,27252
17796,27265
17806,27258
17816,27275
17825,27268
17835,27269
17845,27275
17855,27268
17865,27286
17875,27285
17886,27280
17896,27259
17906,27255
17916,27215
17925,27171
17935,27139
17945,27097
17955,27071
17965,27061
17975,27066
17986,27068
17996,27069
18006,27096
18016,27106
18026,27132
18035,27139
18045,27161
18055,27163
18065,27180
18075,27194
18086,27210
18096,27210
18106,27214
18116,27219
18126,27226
18135,27238
18145,27225
18155,27220
18165,27218
18175,27217
18186,27213
18196,27209
18206,27196
18216,27195
18226,27198
18236,27198
18245,27206
18255,27196
18265,27204
18275,27204
18286,27217
18296,27215
18306,27230
18316,27223
18326,27233
18336,27240
18345,27249
18355,27246
18365,27245
18375,27251
18386,27256
18396,27248
18406,27259
18416,27259
18426,27255
18436,27252
18446,27255
18455,27261
18465,27265
18475,27256
18486,27258
18496,27258
18506,27273
18516,27268
18526,27260
18536,27261
18546,27265
18555,27270
18565,27269
18575,27263
18586,27256
18596,27234
18606,27200
18616,27154
18626,27118
18636,27080
18646,27063
18656,27052
18665,27062
18675,27057
18686,27065
18696,27090
18706,27103
18716,27128
18726,27142
18736,27149
18746,27163
18756,27177
18766,27194
18775,27190
18786,27205
18796,27207
18806,27210
18816,27218
18826,27224
18836,27215
18846,27221
18856,27214
18866,27214
18875,27217
18886,27210
18896,27195
18906,27202
18916,27201
18926,27200
18936,27205
18946,27209
18956,27205
18966,27204
18976,27216
18986,27226
18996,27231
19006,27227
19016,27237
19026,27239
19036,27246
19046,27249
19056,27244
19066,27262
19076,27261
19086,27270
19096,27268
19106,27260
19116,27272
19126,27264
19136,27275
19146,27283
19156,27277
19166,27280
19176,27273
19187,27273
19196,27272
19206,27275
19216,27271
19226,27281
19236,27282
19246,27293
19256,27287
19266,27266
19276,27244
19287,27191
19296,27155
19306,27117
19316,27072
19326,27063
19336,27049
19346,27060
19356,27069
19366,27080
19376,27103
19387,27116
19397,27135
19406,27152
19416,27158
19426,27169
19436,27188
19446,27197
19456,27210
19466,27217
19476,27217
19487,27236
19497,27230
19506,27239
19516,27245
19526,27243
19536,27237
19546,27246
19556,27241
19566,27240
19576,27230
19587,27228
19597,27230
19607,27225
19616,27236
19626,27237
19636,27232
19646,27239
19656,27243
19666,27246
19676,27254
19687,27251
19697,27260
19707,27255
19716,27268
19726,27269
19736,27265
19746,27268
19756,27269
19766,27278
19776,27276
19787,27283
19797,27276
19807,27287
19817,27277
19826,27289
19836,27284
19846,27274
19856,27283
19866,27289
19876,27299
19887,27300
19897,27301
19907,27295
19917,27290
19927,27293
19936,27263
19946,27219
19956,27172
19966,27137
19976,27109
19987,27085
19997,27079
20007,27071
20017,27082
20027,27102
20036,27130
20046,27138
20056,27149
20066,27168
20076,27178
20087,27200
20097,27207
20107,27211
20117,27222
20127,27222
20137,27226
20146,27231
20156,27233
20166,27239
20176,27238
20187,27242
20197,27244
20207,27234
20217,27225
20227,27228
20237,27222
20246,27216
20256,27222
20266,27212
20276,27220
20287,27222
20297,27229
20307,27235
20317,27229
20327,27227
20337,27236
20347,27248
20356,27251
20366,27248
20376,27247
20387,27256
20397,27263
20407,27272
20417,27258
20427,27259
20437,27267
20447,27269
20456,27275
20466,27277
20476,27266
20487,27279
20497,27273
20507,27275
20517,27280
20527,27282
20537,27284
20547,27283
20557,27277
20566,27286
20576,27256
20587,27220
20597,27173
20607,27143
20617,27107
20627,27091
20637,27073
20647,27079
20657,27077
20666,27088
20676,27108
20687,27113
20697,27133
20707,27145
20717,27170
20727,27187
20737,27182
20747,27196
20757,27198
20767,27213
20776,27220
20787,27225
20797,27226
20807,27223
20817,27234
20827,27232
20837,27236
20847,27230
20857,27219
20867,27217
20877,27212
20887,27224
20897,27206
20907,27210
20917,27205
20927,27206
20937,27218
20947,27214
20957,27216
20967,27233
20977,27224
20987,27233
20997,27233
21007,27224
21017,27236
21027,27239
21037,27239
21047,27248
21057,27233
21067,27249
21077,27248
21088,27249
21097,27253
21107,27245
21117,27239
21127,27250
21137,27256
21147,27254
21157,27255
21167,27248
21177,27258
21188,27246
21197,27236
21207,27213
21217,27162
21227,27134
21237,27103
21247,27091
21257,27084
21267,27072
21277,27066
21288,27076
21298,27089
21307,27104
21317,27117
21327,27133
21337,27139
21347,27155
21357,27178
21367,27186
21377,27179
21388,27196
21398,27195
21407,27212
21417,27211
21427,27208
21437,27210
21447,27211
21457,27214
21467,27211
21477,27202
21488,27196
21498,27194
21508,27199
21517,27193
21527,27191
21537,27181
21547,27201
21557,27199
21567,27200
21577,27207
21588,27203
21598,27212
21608,27206
21618,27217
21627,27222
21637,27216
21647,27210
21657,27223
21667,27222
21677,27230
21688,27225
21698,27224
21708,27228
21718,27240
21727,27233
21737,27237
21747,27235
21757,27244
21767,27236
21777,27240
21788,27233
21798,27214
21808,27198
21818,27155
21828,27123
21837,27102
21847,27068
21857,27047
21867,27050
21877,27059
21888,27066
21898,27075
21908,27084
21918,27105
21928,27119
21937,27140
21947,27146
21957,27142
21967,27162
21977,27177
21988,27190
21998,27199
22008,27188
22018,27189
22028,27195
22038,27202
22047,27202
22057,27199
22067,27188
22077,27190
22088,27190
22098,27187
22108,27178
22118,27168
22128,27180
22138,27174
22148,27180
22157,27179
22167,27176
22177,27183
22188,27191
22198,27194
22208,27204
22218,27199
22228,27199
22238,27210
22248,27202
22257,27210
22267,27213
22277,27207
22288,27217
22298,27211
22308,27222
22318,27227
22328,27219
22338,27227
22348,27229
22358,27231
22367,27231
22377,27218
22388,27206
22398,27182
22408,27147
22418,27101
22428,27073
22438,27044
22448,27038
22458,27028
22467,27037
22477,27046
22488,27047
22498,27077
22508,27082
22518,27099
22528,27122
22538,27117
22548,27131
22558,27137
22568,27152
22577,27157
22588,27165
22598,27160
22608,27176
22618,27180
22628,27190
22638,27182
22648,27174
22658,27177
22668,27171
22677,27169
22688,27172
22698,27160
22708,27162
22718,27157
22728,27165
22738,27167
22748,27163
22758,27168
22768,27170
22778,27180
22788,27193
22798,27186
22808,27180
22818,27186
22828,27193
22838,27192
22848,27189
22858,27192
22868,27199
22878,27198
22889,27201
22898,27215
22908,27199
22918,27211
22928,27202
22938,27220
22948,27217
22958,27212
22968,27215
22978,27206
22989,27188
22998,27153
23008,27104
23018,27064
23028,27040
23038,27019
23048,27015
23058,27011
23068,27006
23078,27030
23089,27041
23098,27058
23108,27065
23118,27071
23128,27092
23138,27100
23148,27120
23158,27121
23168,27120
23178,27120
23189,27136
23199,27149
23208,27149
23218,27153
23228,27143
23238,27152
23248,27157
23258,27153
23268,27150
23278,27146
23289,27139
23299,27133
23309,27132
23318,27138
23328,27137
23338,27137
23348,27147
23358,27154
23368,27154
23378,27156
23389,27150
23399,27165
23409,27168
23418,27166
23428,27178
23438,27164
23448,27177
23458,27179
23468,27186
23478,27182
23489,27181
23499,27175
23509,27182
23519,27195
23528,27200
23538,27192
23548,27183
23558,27192
23568,27197
23578,27197
23589,27191
23599,27167
23609,27145
23619,27101
23628,27062
23638,27033
23648,27009
23658,26992
23668,26981
23678,27001
23689,27016
23699,27017
23709,27031
23719,27033
23729,27051
23738,27075
23748,27070
23758,27083
23768,27092
23778,27101
23789,27112
23799,27113
23809,27109
23819,27125
23829,27118
23838,27129
23848,27129
23858,27114
23868,27128
23878,27128
23889,27119
23899,27113
23909,27103
23919,27102
23929,27103
23939,27107
23948,27112
23958,27108
23968,27106
23978,27114
23989,27121
23999,27125
24009,27131
24019,27130
24029,27139
24039,27139
24048,27148
24058,27149
24068,27148
24078,27145
24089,27146
24099,27162
24109,27157
24119,27155
24129,27157
24139,27161
24149,27162
24158,27165
24168,27162
24178,27162
24189,27175
24199,27173
24209,27175
24219,27172
24229,27160
24239,27137
24249,27103
24258,27064
24268,27028
24278,27000
24289,26988
24299,26982
24309,26984
24319,26996
24329,26999
24339,27005
24349,27022
24359,27045
24368,27050
24378,27071
24389,27067
24399,27083
24409,27088
24419,27104
24429,27119
24439,27115
24449,27118
24459,27115
24469,27119
24478,27130
24489,27125
24499,27114
24509,27117
24519,27118
24529,27125
24539,27103
24549,27100
24559,27106
24569,27104
24578,27111
24589,27116
24599,27112
24609,27121
24619,27122
24629,27137
24639,27137
24649,27137
24659,27140
24669,27150
24679,27159
24689,27158
24699,27153
24709,27156
24719,27165
24729,27163
24739,27166
24749,27171
24759,27163
24769,27170
24779,27168
24790,27177
24799,27181
24809,27165
24819,27181
24829,27170
24839,27179
24849,27175
24859,27150
24869,27099
24879,27069
24890,27036
24899,27015
24909,26993
24919,26979
24929,26984
24939,26983
24949,27000
24959,27013
24969,27025
24979,27045
24990,27047
25000,27072
25009,27070
25019,27084
25029,27093
25039,27109
25049,27113
25059,27124
25069,27121
25079,27123
25090,27124
25100,27123
25109,27133
25119,27123
25129,27121
25139,27116
25149,27114
25159,27114
25169,27113
25179,27112
25190,27103
25200,27109
25210,27109
25219,27123
