timestamp_ms,ir_value
4887,24374
4897,24368
4907,24358
4917,24365
4927,24367
4937,24369
4947,24376
4957,24368
4967,24362
4977,24361
4987,24367
4998,24368
5008,24368
5017,24367
5027,24371
5037,24363
5047,24361
5057,24366
5067,24368
5077,24368
5087,24370
5097,24364
5107,24361
5117,24362
5127,24368
5138,24354
5148,24363
5157,24355
5167,24341
5177,24340
5187,24325
5197,24326
5207,24327
5217,24329
5227,24325
5237,24333
5247,24319
5257,24319
5267,24337
5278,24339
5288,24338
5297,24338
5307,24346
5317,24335
5327,24329
5337,24342
5347,24348
5357,24350
5367,24354
5377,24358
5387,24347
5397,24344
5407,24341
5418,24350
5428,24342
5437,24343
5447,24354
5457,24357
5467,24344
5477,24347
5487,24347
5497,24355
5507,24348
5517,24351
5527,24347
5537,24342
5547,24354
5558,24355
5568,24356
5577,24362
5587,24355
5597,24344
5607,24349
5617,24356
5627,24362
5637,24372
5647,24360
5657,24366
5667,24356
5677,24349
5687,24352
5698,24363
5708,24360
5718,24364
5727,24360
5737,24362
5747,24350
5757,24345
5767,24342
5777,24332
5787,24336
5797,24323
5807,24325
5817,24318
5827,24313
5838,24318
5848,24324
5858,24331
5867,24314
5877,24318
5887,24313
5897,24315
5907,24316
5917,24320
5927,24320
5937,24326
5947,24320
5957,24313
5967,24314
5978,24328
5988,24329
5998,24330
6007,24329
6017,24327
6027,24312
6037,24329
6047,24324
6057,24317
6067,24324
6077,24318
6087,24319
6097,24319
6107,24313
6118,24319
6128,24318
6138,24324
6147,24324
6157,24320
6167,24308
6177,24310
6187,24319
6197,24319
6207,24324
6217,24327
6227,24326
6237,24311
6247,24319
6258,24324
6268,24318
6278,24330
6287,24325
6297,24315
6307,24310
6317,24316
6327,24324
6337,24324
6347,24329
6357,24329
6367,24315
6377,24306
6387,24301
6398,24303
6408,24293
6418,24293
6427,24298
6437,24296
6447,24290
6457,24287
6467,24295
6477,24301
6487,24301
6497,24301
6507,24306
6517,24297
6527,24297
6538,24309
6548,24307
6558,24315
6567,24316
6577,24317
6587,24306
6597,24305
6607,24309
6617,24314
6627,24326
6637,24316
6647,24316
6657,24305
6667,24308
6678,24322
6688,24316
6698,24317
6707,24319
6717,24310
6727,24313
6737,24319
6747,24313
6757,24316
6767,24325
6777,24323
6787,24322
6797,24315
6807,24312
6818,24323
6828,24324
6838,24326
6847,24321
6857,24322
6867,24314
6877,24313
6887,24324
6897,24315
6907,24319
6917,24323
6927,24319
6937,24313
6947,24305
6958,24309
6968,24305
6978,24309
6987,24292
6997,24295
7007,24293
7017,24275
7027,24291
7037,24287
7047,24289
7057,24289
7067,24296
7077,24293
7087,24290
7098,24300
7108,24298
7118,24297
7128,24306
7137,24308
7147,24299
7157,24300
7167,24303
7177,24312
7187,24314
7197,24313
7207,24310
7217,24305
7227,24299
7238,24300
7248,24301
7258,24306
7268,24310
7277,24309
7287,24299
7297,24301
7307,24316
7317,24307
7327,24314
7337,24310
7347,24307
7357,24309
7367,24307
7378,24300
7388,24322
7398,24311
7408,24315
7417,24310
7427,24310
7437,24299
7447,24313
7457,24315
7467,24318
7477,24322
7487,24317
7497,24321
7507,24299
7518,24305
7528,24305
7538,24303
7548,24294
7557,24287
7567,24288
7577,24282
7587,24280
7597,24281
7607,24286
7617,24282
7627,24290
7637,24291
7647,24280
7658,24287
7668,24283
7678,24289
7688,24296
7697,24301
7707,24289
7717,24298
7727,24294
7737,24296
7747,24296
7757,24300
7767,24306
7777,24303
7787,24293
7798,24294
7808,24296
7818,24296
7828,24300
7837,24296
7847,24304
7857,24299
7867,24294
7877,24300
7887,24295
7897,24304
7907,24304
7917,24303
7927,24298
7938,24296
7948,24300
7958,24302
7968,24307
7977,24303
7987,24303
7997,24294
8007,24296
8017,24296
8027,24298
8037,24305
8047,24302
8057,24303
8067,24294
8078,24294
8088,24298
8098,24298
8108,24295
8118,24298
8127,24293
8137,24281
8147,24269
8157,24272
8167,24271
8177,24271
8187,24270
8197,24272
8207,24265
8218,24254
8228,24268
8238,24268
8248,24276
8258,24270
8267,24279
8277,24281
8287,24271
8297,24276
8307,24277
8317,24278
8327,24288
8337,24286
8347,24286
8358,24286
8368,24285
8378,24281
8388,24286
8398,24278
8407,24288
8417,24285
8427,24274
8437,24279
8447,24276
8457,24282
8467,24288
8477,24292
8487,24293
8498,24285
8508,24290
8518,24287
8528,24288
8538,24293
8547,24289
8557,24297
8567,24287
8577,24290
8587,24288
8597,24287
8607,24290
8617,24299
8627,24292
8638,24286
8648,24290
8658,24289
8668,24291
8678,24290
8687,24294
8697,24300
8707,24286
8717,24279
8727,24278
8737,24269
8747,24270
8757,24268
8767,24266
8778,24248
8788,24243
8798,24258
8808,24256
8818,24259
8827,24266
8837,24268
8847,24265
8857,24258
8867,24269
8877,24261
8887,24273
8897,24266
8907,24279
8918,24270
8928,24268
8938,24270
8948,24278
8958,24274
8968,24275
8977,24274
8987,24274
8997,24271
9007,24270
9017,24276
9027,24277
9037,24273
9047,24270
9058,24276
9068,24259
9078,24279
9088,24286
9098,24276
9108,24280
9117,24280
9127,24275
9137,24277
9147,24273
9157,24278
9167,24282
9177,24280
9187,24287
9198,24281
9208,24264
9218,24270
9228,24276
9238,24269
9248,24283
9257,24281
9267,24280
9277,24272
9287,24272
9297,24280
9307,24276
9317,24276
9327,24273
9338,24263
9348,24252
9358,24250
9368,24254
9378,24251
9388,24244
9397,24250
9407,24248
9417,24244
9427,24244
9437,24254
9447,24251
9457,24253
9467,24255
9478,24262
9488,24258
9498,24250
9508,24266
9518,24271
9528,24264
9537,24266
9547,24269
9557,24258
9567,24253
9577,24255
9587,24251
9597,24262
9607,24260
9618,24261
9628,24248
9638,24251
9648,24256
9658,24265
9668,24255
9677,24260
9687,24263
9697,24258
9707,24254
9717,24265
9727,24259
9737,24259
9747,24264
9758,24261
9768,24260
9778,24255
9788,24261
9798,24255
9808,24263
9818,24262
9827,24259
9837,24265
9847,24255
9857,24264
9867,24270
9877,24263
9887,24267
9898,24271
9908,24256
9918,24257
9928,24255
9938,24258
9948,24251
9958,24249
9967,24246
9977,24241
9987,24226
9997,24233
10007,24237
10017,24240
10027,24250
10038,24240
10048,24243
10058,24236
10068,24245
10078,24247
10088,24246
10098,24254
10107,24259
10117,24253
10127,24246
10137,24245
10147,24257
10157,24252
10167,24260
10178,24258
10188,24252
10198,24249
10208,24247
10218,24252
10228,24245
10238,24259
10247,24260
10257,24255
10267,24252
10277,24252
10287,24258
10297,24257
10307,24260
10318,24259
10328,24260
10338,24257
10348,24255
10358,24259
10368,24248
10378,24266
10387,24258
10397,24261
10407,24247
10417,24258
10427,24254
10437,24254
10447,24259
10458,24257
10468,24260
10478,24256
10488,24258
10498,24261
10508,24253
10518,24256
10527,24260
10537,24255
10547,24242
10557,24253
10567,24245
10577,24243
10587,24238
10598,24247
10608,24238
10618,24240
10628,24237
10638,24236
10648,24249
10658,24245
10667,24252
10677,24250
10687,24241
10697,24240
10707,24250
10717,24247
10727,24250
10738,24258
10748,24255
10758,24250
10768,24245
10778,24247
10788,24257
10798,24249
10807,24256
10817,24252
10827,24240
10837,24248
10847,24257
10857,24250
10867,24250
10878,24254
10888,24253
10898,24248
10908,24248
10918,24246
10928,24259
10938,24252
10947,24254
10957,24252
10967,24243
10977,24243
10987,24257
10997,24251
11007,24249
11018,24258
11028,24259
11038,24244
11048,24240
11058,24247
11068,24244
11078,24243
11087,24249
11097,24246
11107,24240
11117,24231
11127,24235
11137,24226
11147,24233
11158,24223
11168,24230
11178,24220
11188,24214
11198,24216
11208,24226
11218,24228
11227,24227
11237,24237
11247,24232
11257,24226
11267,24240
11277,24232
11287,24239
11298,24241
11308,24233
11318,24243
11328,24232
11338,24239
11348,24241
11358,24242
11367,24244
11377,24233
11387,24235
11397,24229
11407,24232
11417,24231
11427,24237
11438,24236
11448,24241
11458,24241
11468,24234
11478,24238
11488,24237
11498,24236
11508,24243
11517,24242
11527,24238
11537,24241
11547,24238
11557,24236
11567,24242
11578,24243
11588,24246
11598,24242
11608,24232
11618,24244
11628,24238
11638,24241
11648,24248
11657,24248
11667,24240
11677,24241
11687,24247
11697,24249
11707,24243
11718,24244
11728,24248
11738,24237
11748,24221
11758,24232
11768,24224
11778,24218
11788,24225
11797,24225
11807,24224
11817,24217
11827,24216
11837,24228
11847,24222
11858,24229
11868,24235
11878,24228
11888,24226
11898,24229
11908,24242
11918,24234
11928,24239
11937,24235
11947,24233
11957,24221
11967,24235
11977,24233
11987,24237
11998,24229
12008,24232
12018,24235
12028,24229
12038,24228
12048,24236
12058,24229
12068,24235
12077,24237
12087,24240
12097,24227
12107,24234
12117,24238
12127,24236
12138,24241
12148,24237
12158,24239
12168,24236
12178,24241
12188,24246
12198,24241
12208,24240
12217,24241
12227,24233
12237,24226
12247,24240
12257,24231
12267,24231
12278,24237
12288,24241
12298,24237
12308,24218
12318,24221
12328,24220
12338,24219
12348,24217
12357,24218
12367,24216
12377,24205
12387,24207
12397,24210
12407,24218
12418,24224
12428,24227
12438,24219
12448,24218
12458,24215
12468,24230
12478,24230
12488,24231
12497,24230
12507,24232
12517,24223
12527,24227
12537,24228
12547,24235
12558,24237
12568,24239
12578,24234
12588,24232
12598,24225
12608,24231
12618,24231
12628,24232
12637,24236
12647,24234
12657,24235
12667,24233
12677,24237
12687,24240
12698,24233
12708,24248
12718,24240
12728,24233
12738,24230
12748,24245
12758,24237
12768,24243
12777,24245
12787,24245
12797,24241
12807,24238
12817,24239
12827,24238
12838,24242
12848,24245
12858,24244
12868,24236
12878,24241
12888,24241
12898,24229
12908,24230
12917,24233
12927,24218
12937,24218
12947,24208
12957,24223
12967,24218
12978,24215
12988,24222
12998,24211
13008,24218
13018,24212
13028,24220
13038,24216
13048,24221
13057,24224
13067,24221
13077,24225
13087,24212
13097,24221
13107,24219
13118,24222
13128,24227
13138,24234
13148,24225
13158,24226
13168,24224
13178,24223
13188,24223
13197,24236
13207,24225
13217,24221
13227,24216
13237,24221
13247,24227
13258,24228
13268,24228
13278,24231
13288,24223
13298,24219
13308,24228
13318,24225
13328,24227
13337,24237
13347,24236
13357,24226
13367,24221
13377,24226
13387,24230
13398,24228
13408,24233
13418,24233
13428,24228
13438,24215
13448,24226
13458,24213
13468,24214
13478,24216
13487,24203
13497,24201
13507,24197
13517,24199
13527,24196
13538,24206
13548,24211
13558,24217
13568,24208
13578,24194
13588,24196
13598,24195
13608,24206
13618,24210
13627,24215
13637,24216
13647,24206
13657,24211
13667,24217
13678,24217
13688,24219
13698,24216
13708,24213
13718,24206
13728,24211
13738,24214
13748,24221
13758,24216
13767,24222
13777,24221
13787,24209
13797,24210
13807,24215
13818,24215
13828,24223
13838,24221
13848,24212
13858,24214
13868,24213
13878,24214
13888,24213
13898,24217
13907,24218
13917,24222
13927,24214
13937,24217
13947,24211
13958,24217
13968,24221
13978,24219
13988,24215
13998,24210
14008,24206
14018,24208
14028,24204
14038,24197
14047,24199
14057,24192
14067,24188
14077,24195
14087,24196
14098,24197
14108,24212
14118,24207
14128,24213
14138,24208
14148,24211
14158,24216
14168,24210
14178,24224
14187,24225
14197,24227
14207,24214
14217,24225
14227,24232
14238,24228
14248,24223
14258,24231
14268,24226
14278,24218
14288,24228
14298,24231
14308,24236
14318,24232
14327,24237
14337,24234
14347,24228
14357,24231
14367,24232
14378,24235
14388,24243
14398,24233
14408,24235
14418,24235
14428,24228
14438,24231
14448,24242
14458,24240
14467,24248
14477,24246
14487,24228
14497,24226
14507,24241
14518,24237
14528,24241
14538,24247
14548,24241
14558,24231
14568,24224
14578,24232
14588,24232
14598,24230
14607,24227
14617,24228
14627,24211
14637,24209
14647,24213
14658,24215
14668,24219
14678,24224
14688,24229
14698,24217
14708,24210
14718,24223
14728,24225
14738,24228
14747,24230
14757,24235
14767,24231
14777,24229
14787,24230
14798,24235
14808,24234
14818,24238
14828,24238
14838,24229
14848,24230
14858,24235
14868,24234
14878,24229
14887,24242
14897,24236
14907,24234
14917,24229
14927,24234
14938,24236
14948,24244
14958,24248
14968,24246
14978,24238
14988,24233
14998,24240
15008,24238
15018,24245
15028,24248
15037,24247
15047,24237
15057,24235
15067,24244
15078,24245
15088,24244
15098,24249
15108,24247
15118,24240
15128,24229
15138,24226
15148,24228
15158,24229
15168,24223
15177,24228
15187,24215
15197,24205
15207,24214
15218,24214
15228,24224
15238,24227
15248,24229
15258,24222
15268,24221
15278,24223
15288,24226
15298,24231
15308,24230
15317,24232
15327,24235
15337,24231
15347,24234
15358,24229
15368,24233
15378,24236
15388,24236
15398,24237
15408,24224
15418,24227
15428,24235
15438,24231
15448,24236
15457,24238
15467,24238
15477,24235
15487,24224
15498,24233
15508,24242
15518,24244
15528,24249
15538,24242
15548,24241
15558,24233
15568,24233
15578,24243
15588,24243
15597,24240
15607,24249
15617,24236
15627,24238
15638,24247
15648,24238
15658,24246
15668,24238
15678,24247
15688,24243
15698,24228
15708,24227
15718,24218
15728,24221
15738,24219
15747,24215
15757,24210
15767,24209
15778,24209
15788,24219
15798,24221
15808,24223
15818,24232
15828,24224
15838,24218
15848,24225
15858,24222
15868,24228
15878,24236
15887,24227
15897,24240
15907,24221
15918,24232
15928,24233
15938,24231
15948,24229
15958,24234
15968,24234
15978,24226
15988,24222
15998,24232
16008,24231
16018,24230
16027,24232
16037,24230
16047,24224
16058,24219
16068,24227
16078,24232
16088,24232
16098,24232
16108,24234
16118,24228
16128,24223
16138,24232
16148,24232
16158,24231
16167,24240
16177,24239
16187,24224
16198,24228
16208,24233
16218,24231
16228,24232
16238,24233
16248,24233
16258,24225
16268,24228
16278,24224
16288,24209
16298,24213
16307,24204
16317,24208
16327,24198
16338,24201
16348,24204
16358,24205
16368,24209
16378,24213
16388,24207
16398,24200
16408,24195
16418,24209
16428,24207
16438,24209
16448,24206
16457,24219
16467,24207
16478,24202
16488,24215
16498,24205
16508,24217
16518,24221
16528,24218
16538,24219
16548,24204
16558,24216
16568,24214
16578,24204
16588,24215
16597,24221
16607,24217
16618,24207
16628,24213
16638,24228
16648,24219
16658,24221
16668,24231
16678,24230
16688,24229
16698,24230
16708,24226
16718,24232
16728,24233
16737,24231
16747,24227
16758,24210
16768,24219
16778,24222
16788,24223
16798,24215
16808,24224
16818,24223
16828,24204
16838,24221
16848,24219
16858,24223
16868,24226
16877,24220
16887,24205
16898,24188
16908,24189
16918,24196
16928,24197
16938,24203
16948,24202
16958,24207
16968,24198
16978,24202
16988,24203
16998,24201
17008,24200
17017,24204
17027,24193
17038,24188
17048,24193
17058,24198
17068,24196
17078,24204
17088,24198
17098,24198
17108,24195
17118,24189
17128,24191
17138,24196
17148,24203
17157,24199
17167,24201
17178,24186
17188,24192
17198,24199
17208,24202
17218,24199
17228,24196
17238,24200
17248,24193
17258,24188
17268,24201
17278,24196
17288,24202
17297,24214
17307,24208
17318,24205
17328,24201
17338,24207
17348,24204
17358,24213
17368,24226
17378,24218
17388,24211
17398,24209
17408,24220
17418,24212
17428,24216
17437,24214
17447,24223
17458,24215
17468,24213
17478,24217
17488,24219
17498,24220
17508,24219
17518,24220
17528,24212
17538,24208
17548,24201
17558,24203
17568,24196
17577,24182
17587,24191
17598,24180
17608,24181
17618,24182
17628,24185
17638,24188
17648,24188
17658,24191
17668,24196
17678,24200
17688,24221
17698,24231
17708,24244
17718,24250
17727,24249
17738,24249
17748,24240
17758,24241
17768,24243
17778,24245
17788,24245
17798,24250
17808,24243
17818,24233
17828,24246
17838,24239
17848,24252
17858,24254
17867,24258
17878,24250
17888,24242
17898,24248
17908,24242
17918,24243
17928,24236
17938,24243
17948,24243
17958,24230
17968,24235
17978,24237
17988,24236
17998,24233
18007,24238
18018,24241
18028,24222
18038,24226
18048,24226
18058,24236
18068,24242
18078,24237
18088,24237
18098,24234
18108,24231
18118,24236
18128,24241
18138,24242
18147,24242
18158,24244
18168,24228
18178,24231
18188,24229
18198,24230
18208,24230
18218,24226
18228,24213
18238,24201
18248,24194
18258,24201
18268,24196
18278,24200
18287,24204
18298,24198
18308,24193
18318,24193
18328,24199
18338,24201
18348,24207
18358,24205
18368,24210
18378,24208
18388,24200
18398,24206
18408,24204
18418,24208
18427,24211
18438,24217
18448,24216
18458,24202
18468,24208
18478,24211
18488,24216
18498,24207
18508,24210
18518,24207
18528,24205
18538,24215
18548,24211
18558,24209
18567,24213
18578,24215
18588,24212
18598,24209
18608,24216
18618,24209
18628,24221
18638,24216
18648,24222
18658,24212
18668,24216
18678,24220
18688,24223
18698,24228
18707,24233
18718,24229
18728,24223
18738,24218
18748,24226
18758,24219
18768,24220
18778,24226
18788,24231
18798,24212
18808,24228
18818,24227
18828,24227
18838,24221
18847,24223
18858,24227
18868,24221
18878,24218
18888,24221
18898,24212
18908,24229
18918,24227
18928,24217
18938,24213
18948,24199
18958,24209
18968,24202
18978,24206
18988,24210
18998,24218
19008,24214
19018,24202
19028,24209
19038,24213
19048,24213
19058,24217
19068,24223
19078,24222
19088,24210
19098,24223
19108,24221
19118,24229
19128,24234
19138,24227
19148,24214
19158,24215
19168,24221
19178,24225
19188,24226
19198,24230
19208,24227
19218,24226
19228,24220
19238,24220
19248,24219
19258,24217
19268,24226
19278,24227
19288,24215
19298,24212
19308,24219
19318,24227
19328,24223
19338,24231
19348,24228
19358,24225
19368,24217
19378,24221
19388,24230
19398,24231
19408,24235
19418,24229
19428,24223
19438,24222
19448,24226
19458,24231
19468,24229
19478,24226
19488,24229
19498,24234
19508,24222
19518,24225
19528,24226
19538,24226
19548,24227
19558,24233
19568,24222
19578,24210
19588,24214
19598,24210
19608,24209
19618,24214
19628,24210
19638,24205
19648,24200
19658,24204
19668,24209
19678,24210
19688,24215
19698,24215
19708,24206
19718,24201
19728,24205
19738,24211
19748,24210
19758,24216
19768,24213
19778,24213
19788,24205
19798,24209
19808,24214
19818,24206
19828,24214
19838,24216
19848,24209
19858,24202
19868,24207
19878,24219
19888,24212
19898,24213
19908,24219
19918,24223
19928,24218
19938,24213
19948,24220
19958,24223
19968,24224
19978,24229
19988,24222
19998,24215
20008,24211
20018,24219
20028,24218
20038,24224
20048,24230
20058,24224
20068,24215
20078,24223
20088,24225
20098,24224
20108,24226
20118,24228
20128,24224
20138,24226
20148,24224
20158,24224
20168,24225
20178,24218
20188,24224
20198,24219
20208,24216
20218,24210
20228,24208
20238,24199
20248,24200
20258,24206
20268,24209
20278,24205
20288,24192
20298,24208
20308,24212
20318,24209
20328,24210
20338,24213
20348,24208
20358,24205
20368,24217
20378,24209
20388,24215
20398,24221
20408,24214
20418,24216
20428,24207
20438,24203
20448,24214
20458,24216
20468,24219
20478,24213
20488,24209
20498,24204
20508,24213
20518,24219
20528,24215
20538,24213
20548,24216
20558,24212
20568,24196
20578,24214
20588,24210
20598,24214
20608,24224
20618,24220
20628,24215
20638,24216
20648,24224
20658,24225
20668,24219
20679,24218
20688,24229
20698,24229
20708,24216
20718,24215
20728,24218
20738,24230
20748,24228
20758,24223
20768,24219
20778,24215
20788,24219
20798,24221
20808,24220
20819,24222
20828,24223
20838,24206
20848,24207
20858,24205
20868,24207
20878,24207
20888,24215
20898,24210
20908,24208
20918,24198
20928,24207
20938,24207
20948,24208
20959,24213
20968,24224
20978,24223
20988,24212
20998,24217
21008,24218
21018,24223
21028,24223
21038,24221
21048,24217
21058,24206
21068,24207
21078,24226
21088,24219
21099,24220
21108,24223
21118,24221
21128,24212
21138,24217
21148,24222
21158,24224
21168,24223
21178,24226
21188,24224
21198,24215
21208,24213
21218,24218
21228,24220
21239,24222
21248,24225
21258,24229
21268,24219
21278,24215
21288,24218
21298,24215
21308,24216
21318,24229
21328,24227
21338,24218
21348,24220
21358,24214
21368,24212
21379,24220
21388,24211
21398,24210
21408,24201
21418,24198
21428,24202
21438,24196
21448,24204
21458,24203
21468,24200
21478,24197
21488,24195
21498,24199
21508,24199
21519,24204
21528,24207
21538,24207
21548,24206
21558,24199
21568,24212
21578,24202
21588,24207
21598,24217
21608,24215
21618,24215
21628,24207
21638,24213
21648,24206
21659,24200
21668,24206
21678,24212
21688,24204
21698,24199
21708,24211
21718,24204
21728,24209
21738,24210
21748,24214
21758,24206
21768,24201
21778,24208
21788,24209
21799,24213
21808,24208
21818,24211
21828,24208
21838,24200
21848,24215
21858,24209
21868,24205
21878,24214
21888,24212
21898,24211
21908,24201
21918,24213
21928,24213
21939,24206
21948,24206
21958,24203
21968,24192
21978,24176
21988,24189
21998,24186
22008,24188
22018,24191
22028,24194
22038,24192
22048,24185
22058,24187
22068,24194
22079,24187
22089,24201
22098,24198
22108,24188
22118,24180
22128,24190
22138,24189
22148,24196
22158,24203
22168,24199
22178,24202
22188,24199
22198,24194
22208,24195
22219,24197
22229,24197
22238,24207
22248,24201
22258,24190
22268,24196
22278,24194
22288,24202
22298,24198
22308,24202
22318,24199
22328,24191
22338,24198
22348,24202
22359,24204
22369,24200
22378,24206
22388,24200
22398,24196
22408,24197
22418,24205
22428,24209
22438,24208
22448,24206
22458,24201
22468,24195
22478,24202
22488,24205
22499,24203
22509,24203
22518,24206
22528,24187
22538,24184
22548,24186
22558,24191
22568,24180
22578,24188
22588,24187
22598,24180
22608,24184
22618,24182
22628,24183
22639,24185
22649,24180
22658,24191
22668,24176
22678,24175
22688,24179
22698,24184
22708,24193
22718,24195
22728,24191
22738,24193
22748,24187
22758,24189
22768,24192
22779,24195
22789,24199
22798,24199
22808,24193
22818,24182
22828,24191
22838,24199
22848,24197
22858,24187
22868,24197
22878,24189
22888,24190
22898,24200
22908,24195
22919,24197
22929,24196
22938,24205
22948,24196
22958,24189
22968,24186
22978,24196
22988,24187
22998,24198
23008,24195
23018,24196
23028,24197
23038,24190
23048,24203
23059,24197
23069,24196
23078,24198
23088,24200
23098,24197
23108,24182
23118,24191
23128,24183
23138,24178
23148,24182
23158,24183
23168,24170
23178,24161
23188,24169
23199,24168
23209,24176
23219,24177
23228,24175
23238,24173
23248,24167
23258,24168
23268,24172
23278,24178
23288,24177
23298,24178
23308,24176
23318,24174
23328,24179
23339,24171
23349,24186
23359,24182
23368,24180
23378,24181
23388,24176
23398,24177
23408,24187
23418,24180
23428,24182
23438,24178
23448,24174
23458,24170
23468,24185
23479,24188
23489,24185
23498,24184
23508,24193
23518,24185
23528,24184
23538,24189
23548,24177
23558,24192
23568,24194
23578,24194
23588,24184
23598,24186
23608,24186
23619,24191
23629,24189
23638,24196
23648,24194
23658,24193
23668,24180
23678,24188
23688,24186
23698,24183
23708,24197
23718,24193
23728,24190
23738,24184
23748,24191
23759,24188
23769,24181
23779,24176
23788,24174
23798,24169
23808,24155
23818,24163
23828,24160
23838,24164
23848,24166
23858,24168
23868,24164
23878,24154
23888,24157
23899,24171
23909,24176
23919,24171
23928,24165
23938,24172
23948,24165
23958,24170
23968,24173
23978,24180
23988,24180
23998,24176
24008,24182
24018,24172
24028,24175
24039,24179
24049,24179
24059,24176
24068,24184
24078,24179
24088,24172
24098,24176
24108,24170
24118,24179
24128,24189
24138,24181
24148,24184
24158,24172
24168,24172
24179,24176
24189,24179
24199,24182
24208,24186
24218,24181
24228,24176
24238,24179
24248,24192
24258,24180
24268,24188
24278,24189
24288,24185
24298,24187
24308,24180
24319,24184
24329,24189
24339,24189
24348,24193
24358,24181
24368,24180
24378,24175
24388,24176
24398,24182
24408,24186
24418,24182
24428,24177
24438,24160
24448,24157
24459,24169
24469,24158
24479,24153
24488,24154
24498,24148
24508,24152
24518,24150
24528,24152
24538,24155
24548,24162
24558,24160
24568,24163
24578,24162
24588,24157
24599,24163
24609,24170
24619,24169
24629,24171
24638,24168
24648,24169
24658,24165
24668,24158
24678,24162
24688,24169
24698,24167
24708,24167
24718,24176
24728,24164
24739,24165
24749,24165
24759,24174
24769,24178
24778,24176
24788,24182
24798,24167
24808,24173
24818,24170
24828,24173
24838,24179
24848,24178
24858,24182
24868,24176
24879,24175
24889,24183
24899,24186
24909,24180
24918,24178
24928,24177
24938,24161
24948,24161
24958,24162
24968,24157
24978,24173
24988,24175
24998,24170
25008,24168
25019,24151
25029,24169
25039,24162
25049,24174
25058,24163
25068,24176
25078,24166
25088,24159
25098,24161
25108,24161
25118,24162
25128,24153
25138,24156
25148,24146
25159,24148
25169,24158
25179,24156
25189,24165
25198,24158
25208,24161
25218,24154
25228,24160
25238,24166
25248,24165
25258,24164
25268,24175
25278,24173
25288,24168
25299,24167
25309,24181
25319,24172
25329,24176
25338,24172
25348,24168
25358,24163
25368,24161
25378,24170
25388,24172
25398,24164
25408,24179
25418,24177
25428,24168
25439,24164
25449,24167
25459,24177
25469,24172
25479,24181
25488,24179
25498,24176
25508,24169
25518,24171
25528,24171
25538,24170
25548,24179
25558,24173
25568,24170
25579,24174
25589,24169
25599,24162
25609,24166
25619,24173
25628,24173
25638,24168
25648,24158
25658,24162
25668,24167
25678,24164
25688,24169
25698,24173
25708,24163
25719,24167
25729,24168
25739,24172
25749,24172
25759,24170
25768,24161
25778,24158
25788,24142
25798,24147
25808,24144
25818,24140
25828,24154
25838,24158
25848,24156
25859,24158
25869,24157
25879,24164
25889,24166
25899,24166
25908,24171
25918,24170
25928,24157
25938,24167
25948,24172
25958,24170
25968,24172
25978,24178
25988,24172
25999,24167
26009,24168
26019,24172
26029,24172
26039,24174
26048,24170
26058,24170
26068,24169
26078,24161
26088,24171
26098,24169
26108,24177
26118,24171
26128,24179
26139,24176
26149,24165
26159,24181
26169,24171
26179,24178
26189,24180
26198,24176
26208,24175
26218,24171
26228,24172
26238,24179
26248,24176
26258,24180
26268,24181
26279,24183
26289,24179
26299,24176
26309,24183
26319,24180
26329,24185
26338,24179
26348,24180
26358,24173
26368,24182
26378,24180
26388,24167
26398,24171
26408,24167
26419,24169
26429,24154
26439,24164
26449,24156
26459,24159
26469,24165
26478,24162
26488,24163
26498,24153
26508,24159
26518,24170
26528,24167
26538,24176
26548,24178
26559,24177
26569,24160
26579,24169
26589,24175
26599,24174
26609,24175
26618,24175
26628,24170
26638,24166
26648,24164
26658,24181
26668,24171
26678,24183
26688,24185
26699,24181
26709,24175
26719,24171
26729,24174
26739,24187
26749,24184
26758,24186
26768,24182
26778,24181
26788,24172
26798,24178
26808,24176
26818,24177
26828,24184
26839,24179
26849,24180
26859,24179
26869,24189
26879,24187
26889,24187
26899,24187
26908,24190
26918,24181
26928,24188
26938,24185
26948,24189
26958,24185
26968,24191
26979,24190
26989,24183
26999,24176
27009,24171
27019,24176
27029,24172
27039,24169
27048,24172
27058,24166
27068,24159
27078,24166
27088,24172
27098,24165
27108,24175
27119,24176
27129,24173
27139,24172
27149,24180
27159,24181
27169,24184
27179,24180
27188,24185
27198,24184
27208,24181
27218,24182
27228,24184
27238,24184
27248,24188
27259,24194
27269,24191
27279,24179
27289,24180
27299,24185
27309,24183
27319,24189
27328,24185
27338,24191
27348,24182
27358,24179
27368,24187
27378,24189
27388,24190
27399,24189
27409,24199
27419,24189
27429,24186
27439,24200
27449,24185
27459,24198
27468,24195
27478,24185
27488,24192
27498,24190
27508,24195
27518,24195
27528,24194
27539,24197
27549,24190
27559,24186
27569,24178
27579,24197
27589,24185
27599,24181
27608,24181
27618,24177
27628,24163
27638,24159
27648,24170
27658,24164
27668,24164
27679,24179
27689,24170
27699,24170
27709,24164
27719,24171
27729,24173
27739,24181
27748,24181
27758,24177
27768,24169
27778,24171
27788,24180
27798,24183
27808,24180
27819,24183
27829,24185
27839,24175
27849,24177
27859,24178
27869,24175
27879,24178
27888,24183
27898,24187
27908,24175
27918,24178
27928,24182
27938,24183
27948,24183
27959,24192
27969,24181
27979,24185
27989,24180
27999,24192
28009,24190
28019,24194
28028,24195
28038,24197
28048,24182
28058,24181
28068,24191
28078,24193
28088,24193
28099,24194
28109,24205
28119,24191
28129,24183
28139,24193
28149,24194
28159,24188
28168,24180
28178,24180
28188,24167
28198,24170
28208,24166
28218,24168
28228,24170
28239,24173
28249,24170
28259,24163
28269,24156
28279,24167
28289,24173
28299,24178
28308,24180
28318,24180
28328,24175
28338,24164
28348,24181
28358,24177
28368,24186
28379,24180
28389,24180
28399,24181
28409,24175
28419,24182
28429,24180
28439,24184
28448,24183
28458,24185
28468,24183
28478,24182
28488,24182
28498,24184
28508,24190
28519,24195
28529,24190
28539,24191
28549,24178
28559,24184
28569,24182
28579,24196
28588,24196
28598,24198
28608,24187
28618,24186
28628,24183
28638,24190
28648,24198
28659,24203
28669,24198
28679,24194
28689,24195
28699,24201
28709,24205
28719,24191
28729,24201
28738,24185
28748,24184
28758,24172
28768,24178
28778,24177
28788,24170
28799,24173
28809,24179
28819,24178
28829,24165
28839,24174
28849,24179
28859,24181
28869,24191
28878,24188
28888,24188
28898,24181
28908,24178
28918,24188
28928,24189
28939,24186
28949,24192
28959,24192
28969,24184
28979,24182
28989,24189
28999,24181
29009,24189
29018,24188
29028,24182
29038,24177
29048,24167
29058,24179
29068,24185
29079,24193
29089,24190
29099,24190
29109,24188
29119,24183
29129,24192
29139,24190
29149,24196
29158,24199
29168,24193
29178,24192
29188,24182
29198,24197
29208,24187
29219,24196
29229,24198
29239,24201
29249,24192
29259,24184
29269,24193
29279,24191
29289,24198
29298,24189
29308,24192
29318,24188
29328,24177
29338,24181
29348,24180
29359,24179
29369,24180
29379,24184
29389,24174
29399,24171
29409,24184
29419,24176
29429,24189
29439,24189
29448,24190
29458,24186
29468,24174
29478,24178
29488,24190
29499,24193
29509,24196
29519,24195
29529,24194
29539,24188
29549,24191
29559,24185
29569,24193
29579,24192
29588,24187
29598,24190
29608,24187
29618,24197
29628,24188
29639,24198
29649,24200
29659,24208
29669,24200
29679,24199
29689,24210
29699,24204
29709,24201
29719,24200
29728,24208
29738,24210
29748,24199
29758,24196
29768,24212
29779,24212
29789,24211
29799,24222
29809,24211
29819,24212
29829,24212
29839,24212
29849,24206
29859,24211
29868,24216
29878,24205
29888,24187
29898,24198
29908,24193
29919,24193
29929,24191
29939,24195
29949,24189
29959,24188
29969,24189
29979,24190
29989,24189
29999,24191
30008,24193
30018,24190
30028,24189
30038,24188
30048,24188
30059,24189
30069,24197
30079,24193
30089,24196
30099,24196
30109,24183
30119,24193
30129,24194
30139,24197
30149,24194
30158,24190
30168,24194
30178,24182
30188,24190
30199,24191
30209,24194
30219,24201
30229,24199
30239,24193
30249,24182
30259,24193
30269,24191
30279,24197
30289,24192
30298,24193
30308,24190
30318,24176
30328,24194
30339,24188
30349,24195
30359,24201
30369,24199
30379,24195
30389,24191
30399,24191
30409,24197
30419,24191
30429,24192
30438,24183
30448,24186
30458,24175
30468,24160
30479,24167
30489,24173
30499,24187
30509,24178
30519,24184
30529,24171
30539,24164
30549,24175
30559,24180
30569,24179
30578,24181
30588,24185
30598,24182
30608,24179
30619,24179
30629,24187
30639,24192
30649,24195
30659,24189
30669,24186
30679,24180
30689,24188
30699,24188
30709,24184
30719,24188
30728,24185
30738,24188
30748,24182
30759,24188
30769,24194
30779,24193
30789,24190
30799,24192
30809,24188
30819,24181
30829,24186
30839,24185
30849,24184
30859,24191
30868,24189
30878,24188
30888,24176
30899,24189
30909,24185
30919,24187
30929,24189
30939,24194
30949,24191
30959,24185
30969,24184
30979,24182
30989,24181
30999,24179
31008,24171
31018,24174
31028,24154
31039,24155
31049,24160
31059,24162
31069,24170
31079,24172
31089,24174
31099,24164
31109,24167
31119,24177
31129,24179
31139,24177
31148,24180
31158,24177
31168,24170
31179,24168
31189,24177
31199,24176
31209,24184
31219,24184
31229,24176
31239,24175
31249,24170
31259,24179
31269,24176
31279,24182
31288,24180
31298,24173
31308,24168
31319,24170
31329,24186
31339,24177
31349,24179
31359,24184
31369,24183
31379,24185
31389,24175
31399,24179
31409,24178
31419,24186
31428,24184
31438,24183
31448,24181
31459,24174
31469,24182
31479,24182
31489,24188
31499,24192
31509,24188
31519,24182
31529,24182
31539,24182
31549,24173
31559,24174
31569,24174
31578,24171
31588,24158
31599,24153
31609,24161
31619,24163
31629,24169
31639,24170
31649,24168
31659,24176
31669,24163
31679,24167
31689,24169
31699,24175
31709,24176
31718,24176
31728,24182
31739,24171
31749,24173
31759,24182
31769,24177
31779,24179
31789,24181
31799,24181
31809,24171
31819,24177
31829,24178
31839,24180
31849,24179
31858,24185
31868,24177
31879,24167
31889,24180
31899,24175
31909,24178
31919,24182
31929,24189
31939,24186
31949,24174
31959,24181
31969,24189
31979,24189
31989,24192
31998,24186
32008,24188
32019,24183
32029,24189
32039,24187
32049,24188
32059,24191
32069,24190
32079,24195
32089,24179
32099,24187
32109,24186
32119,24177
32129,24181
32138,24179
32148,24176
32159,24163
32169,24165
32179,24165
32189,24165
32199,24167
32209,24169
32219,24172
32229,24163
32239,24172
32249,24171
32259,24165
32269,24172
32278,24177
32288,24180
32299,24170
32309,24175
32319,24177
32329,24172
32339,24171
32349,24184
32359,24177
32369,24176
32379,24171
32389,24173
32399,24175
32409,24177
32418,24170
32428,24174
32439,24168
32449,24171
32459,24181
32469,24177
32479,24181
32489,24186
32499,24191
32509,24187
32519,24174
32529,24178
32539,24173
32549,24176
32558,24179
32568,24178
32579,24186
32589,24167
32599,24181
32609,24185
32619,24185
32629,24185
32639,24190
32649,24184
32659,24173
32669,24187
32679,24180
32689,24186
32699,24176
32708,24179
32719,24168
32729,24160
32739,24162
32749,24164
32759,24166
32769,24168
32779,24165
32789,24164
32799,24162
32809,24171
32819,24168
32829,24175
32839,24177
32848,24177
32859,24178
32869,24168
32879,24174
32889,24182
32899,24179
32909,24181
32919,24188
32929,24183
32939,24168
32949,24177
32959,24177
32969,24181
32979,24186
32988,24182
32999,24182
33009,24176
33019,24177
33029,24187
33039,24179
33049,24188
33059,24180
33069,24177
33079,24183
33089,24188
33099,24191
33109,24180
33119,24196
33128,24184
33139,24190
33149,24179
33159,24177
33169,24187
33179,24187
33189,24190
33199,24198
33209,24190
33219,24186
33229,24179
33239,24192
33249,24183
33259,24188
33268,24185
33279,24186
33289,24166
33299,24166
33309,24176
33319,24166
33329,24173
33339,24176
33349,24173
33359,24163
33369,24165
33379,24177
33389,24175
33399,24178
33408,24180
33419,24183
33429,24176
33439,24179
33449,24183
33459,24182
33469,24186
33479,24185
33489,24182
33499,24181
33509,24179
33519,24185
33529,24187
33539,24180
33548,24190
33559,24185
33569,24182
33579,24183
33589,24187
33599,24190
33609,24181
33619,24185
33629,24185
33639,24193
33649,24181
33659,24187
33669,24180
33679,24188
33689,24189
33699,24189
33709,24187
33719,24182
33729,24186
33739,24191
33749,24187
33759,24195
33769,24195
33779,24197
33789,24189
33799,24192
33809,24197
33819,24183
33829,24191
33839,24195
33849,24188
33859,24174
33869,24173
33879,24174
33889,24172
33899,24168
33909,24182
33919,24171
33929,24168
33939,24170
33949,24173
33959,24179
33969,24180
33979,24186
33989,24189
33999,24181
34009,24178
34019,24179
34029,24182
34039,24188
34049,24189
34059,24189
34069,24192
34079,24182
34089,24186
34099,24190
34109,24183
34119,24187
34129,24188
34139,24185
34149,24177
34159,24186
34169,24186
34179,24183
34189,24186
34199,24188
34209,24182
34219,24185
34229,24189
34239,24188
34249,24189
34260,24192
34269,24183
34279,24186
34289,24183
34299,24185
34309,24188
34319,24185
34329,24199
34339,24194
34349,24186
34359,24169
34369,24185
34379,24183
34389,24188
34400,24187
34409,24194
34419,24195
34429,24179
34439,24170
34449,24184
34459,24174
34469,24183
34479,24187
34489,24171
34499,24160
34509,24158
34519,24167
34529,24165
34540,24164
34549,24166
34559,24174
34569,24164
34579,24165
34589,24172
34599,24170
34609,24179
34619,24180
34629,24183
34639,24169
34649,24172
34659,24173
34669,24178
34680,24181
34689,24183
34699,24182
34709,24173
34719,24171
34729,24175
34739,24174
34749,24185
34759,24183
34769,24178
34779,24177
34789,24174
34799,24184
34809,24181
34820,24188
34829,24185
34839,24183
34849,24179
34859,24175
34869,24186
34879,24181
34889,24182
34899,24176
34909,24185
34919,24178
34929,24178
34939,24184
34949,24178
34960,24182
34970,24180
34979,24189
34989,24181
34999,24174
35009,24187
35019,24179
35029,24188
35039,24184
35049,24183
35059,24182
35069,24161
35079,24163
35089,24167
35100,24167
35110,24167
35119,24166
35129,24166
35139,24156
35149,24157
35159,24167
35169,24163
35179,24167
35189,24176
35199,24175
35209,24170
35219,24165
35229,24168
35240,24176
35250,24179
35259,24174
35269,24174
35279,24174
35289,24170
35299,24172
35309,24181
35319,24181
35329,24177
35339,24175
35349,24164
35359,24173
35369,24182
35380,24175
35390,24180
35399,24178
35409,24181
35419,24178
35429,24173
35439,24177
35449,24181
35459,24184
35469,24185
35479,24181
35489,24179
35499,24168
35509,24185
35520,24176
35530,24183
35539,24186
35549,24180
35559,24178
35569,24169
35579,24179
35589,24186
35599,24189
35609,24190
35619,24181
35629,24184
35639,24180
35649,24182
35660,24178
35670,24180
35679,24176
35689,24169
35699,24162
35709,24162
35719,24168
35729,24157
35739,24164
35749,24174
35759,24169
35769,24167
35779,24167
35789,24170
35800,24172
35810,24181
35819,24181
35829,24178
35839,24169
35849,24175
35859,24177
35869,24175
35879,24181
35889,24182
35899,24180
35909,24177
35919,24168
35929,24167
35940,24176
35950,24177
35960,24176
35969,24186
35979,24178
35989,24173
35999,24171
36009,24180
36019,24181
36029,24180
36039,24177
36049,24177
36059,24176
36069,24171
36080,24179
36090,24179
36100,24186
36109,24184
36119,24183
36129,24179
36139,24176
36149,24175
36159,24175
36169,24191
36179,24182
36189,24186
36199,24180
36209,24180
36220,24188
36230,24190
36240,24186
36249,24189
36259,24183
36269,24171
36279,24169
36289,24171
36299,24168
36309,24175
36319,24170
36329,24169
36339,24165
36349,24162
36360,24175
36370,24175
36380,24176
36389,24177
36399,24170
36409,24174
36419,24174
36429,24184
36439,24186
36449,24188
36459,24190
36469,24186
36479,24181
36489,24184
