timestamp_ms,ir_value
4886,26907
4896,26907
4905,26916
4915,26912
4925,26907
4936,26917
4946,26919
4956,26953
4966,26956
4976,26953
4986,26973
4996,26970
5006,26986
5015,26993
5025,26987
5035,26985
5046,26995
5056,26984
5066,26982
5076,26978
5086,26969
5096,26979
5106,26986
5115,26995
5125,26993
5135,26984
5145,26967
5156,26964
5166,26955
5176,26938
5186,26934
5196,26908
5206,26898
5216,26881
5226,26849
5235,26828
5245,26810
5255,26800
5265,26801
5276,26800
5286,26812
5296,26826
5306,26839
5316,26866
5326,26882
5335,26916
5345,26927
5355,26946
5365,26951
5375,26955
5386,26958
5396,26956
5406,26948
5416,26948
5426,26952
5436,26957
5445,26949
5455,26932
5465,26917
5475,26914
5485,26893
5496,26894
5506,26885
5516,26879
5526,26889
5536,26885
5546,26889
5555,26880
5565,26874
5575,26854
5585,26843
5595,26835
5606,26820
5616,26811
5626,26804
5636,26800
5646,26789
5655,26790
5665,26790
5675,26769
5685,26757
5695,26756
5705,26746
5716,26745
5726,26735
5736,26724
5746,26727
5756,26716
5766,26726
5775,26728
5785,26735
5795,26746
5805,26748
5815,26761
5826,26772
5836,26783
5846,26778
5856,26787
5866,26787
5876,26796
5885,26784
5895,26763
5905,26735
5915,26715
5925,26698
5935,26679
5946,26666
5956,26652
5966,26649
5976,26654
5986,26652
5995,26660
6005,26667
6015,26677
6025,26703
6035,26718
6045,26745
6056,26771
6066,26786
6076,26826
6086,26859
6095,26890
6105,26922
6115,26933
6125,26939
6135,26937
6145,26928
6155,26911
6166,26881
6176,26861
6186,26843
6196,26830
6205,26805
6215,26777
6225,26749
6235,26744
6245,26726
6255,26720
6265,26716
6276,26709
6286,26708
6296,26719
6306,26736
6315,26750
6325,26763
6335,26766
6345,26803
6355,26821
6365,26850
6375,26876
6386,26912
6396,26948
6406,26991
6416,27030
6425,27070
6435,27109
6445,27124
6455,27144
6465,27144
6475,27135
6485,27119
6496,27103
6506,27093
6516,27082
6526,27082
6535,27088
6545,27092
6555,27085
6565,27095
6575,27104
6585,27112
6595,27111
6606,27092
6616,27059
6626,27002
6635,26954
6645,26904
6655,26849
6665,26809
6675,26798
6685,26783
6695,26777
6705,26779
6716,26811
6726,26874
6736,26911
6745,26909
6755,26895
6765,26909
6775,26963
6785,27024
6795,27057
6805,27059
6815,27059
6826,27058
6836,27037
6846,26988
6855,26935
6865,26872
6875,26793
6885,26742
6895,26690
6905,26667
6915,26632
6925,26602
6935,26567
6946,26553
6956,26530
6965,26523
6975,26516
6985,26509
6995,26518
7005,26541
7015,26559
7025,26580
7035,26591
7045,26595
7056,26606
7066,26602
7076,26603
7085,26615
7095,26616
7105,26636
7115,26660
7125,26672
7135,26670
7145,26673
7155,26679
7165,26671
7176,26678
7186,26685
7195,26693
7205,26703
7215,26702
7225,26712
7235,26729
7245,26742
7255,26759
7265,26762
7275,26767
7286,26766
7296,26775
7305,26765
7315,26755
7325,26740
7335,26723
7345,26715
7355,26697
7365,26677
7375,26646
7385,26633
7395,26615
7406,26602
7415,26589
7425,26591
7435,26579
7445,26591
7455,26594
7465,26605
7475,26615
7485,26626
7495,26640
7505,26662
7516,26684
7525,26702
7535,26707
7545,26704
7555,26718
7565,26705
7575,26700
7585,26682
7595,26662
7605,26638
7615,26624
7626,26608
7635,26586
7645,26569
7655,26553
7665,26545
7675,26527
7685,26511
7695,26507
7705,26487
7715,26488
7725,26481
7736,26491
7745,26484
7755,26489
7765,26485
7775,26505
7785,26527
7795,26546
7805,26582
7815,26595
7825,26617
7835,26621
7846,26634
7855,26611
7865,26592
7875,26569
7885,26549
7895,26531
7905,26539
7915,26552
7925,26562
7935,26576
7945,26594
7955,26633
7965,26670
7975,26704
7985,26723
7995,26740
8005,26770
8015,26786
8025,26810
8035,26816
8045,26833
8055,26843
8065,26852
8075,26863
8085,26863
8095,26848
8105,26865
8115,26855
8125,26848
8135,26844
8145,26813
8155,26802
8165,26777
8175,26733
8185,26681
8195,26611
8205,26549
8215,26515
8225,26497
8235,26489
8245,26470
8255,26457
8265,26472
8275,26461
8285,26462
8295,26477
8305,26473
8315,26481
8325,26482
8335,26494
8345,26501
8355,26481
8365,26455
8375,26438
8385,26424
8395,26420
8404,26409
8415,26403
8425,26392
8435,26391
8445,26393
8455,26396
8465,26383
8475,26377
8485,26361
8495,26361
8505,26365
8514,26362
8525,26360
8535,26351
8545,26355
8555,26354
8565,26351
8575,26351
8585,26342
8595,26338
8605,26347
8615,26355
8624,26369
8634,26381
8645,26400
8655,26412
8665,26441
8675,26450
8685,26469
8695,26472
8705,26466
8715,26473
8725,26465
8734,26473
8744,26476
8755,26471
8765,26471
8775,26488
8785,26496
8795,26505
8805,26511
8815,26512
8825,26535
8835,26538
8844,26544
8854,26553
8865,26550
8875,26566
8885,26586
8895,26618
8905,26643
8915,26678
8925,26722
8935,26764
8945,26793
8954,26817
8964,26816
8974,26774
8985,26714
8995,26657
9005,26619
9015,26578
9025,26555
9035,26517
9045,26503
9055,26481
9065,26468
9074,26467
9084,26456
9095,26458
9105,26463
9115,26469
9125,26480
9135,26481
9145,26485
9155,26494
9165,26512
9174,26526
9184,26556
9194,26560
9205,26565
9215,26571
9225,26576
9235,26564
9245,26549
9255,26527
9265,26526
9275,26508
9284,26503
9294,26490
9304,26477
9315,26479
9325,26481
9335,26490
9345,26495
9355,26500
9365,26504
9375,26524
9385,26540
9394,26561
9404,26580
9414,26589
9424,26612
9435,26627
9445,26650
9455,26669
9465,26663
9475,26672
9485,26688
9495,26688
9504,26701
9514,26708
9524,26695
9534,26710
9545,26719
9555,26734
9565,26738
9575,26733
9585,26725
9595,26729
9605,26719
9614,26716
9624,26703
9634,26692
9644,26696
9655,26700
9665,26694
9675,26699
9685,26685
9695,26679
9705,26656
9715,26620
9724,26583
9734,26540
9744,26504
9754,26484
9765,26473
9775,26450
9785,26454
9795,26444
9805,26431
9815,26437
9825,26442
9834,26447
9844,26469
9854,26467
9864,26495
9875,26512
9885,26515
9895,26543
9905,26554
9915,26569
9925,26602
9935,26648
9944,26671
9954,26706
9964,26715
9974,26748
9985,26763
9995,26777
10005,26795
10015,26781
10025,26773
10035,26775
10045,26776
10054,26777
10064,26779
10074,26764
10084,26772
10094,26764
10105,26768
10115,26769
10125,26767
10135,26771
10145,26786
10155,26830
10164,26864
10174,26934
10184,26990
10194,27040
10204,27057
10215,27069
10225,27060
10235,27044
10245,27039
10255,27041
10265,27036
10274,27030
10284,27027
10294,27021
10304,27037
10314,27052
10325,27074
10335,27101
10345,27100
10355,27117
10365,27122
10375,27125
10384,27121
10394,27104
10404,27050
10414,26994
10424,26929
10435,26858
10445,26807
10455,26771
10465,26729
10475,26707
10485,26673
10494,26651
10504,26622
10514,26593
10524,26598
10534,26590
10545,26574
10555,26575
10565,26577
10575,26576
10585,26581
10595,26594
10604,26607
10614,26626
10624,26630
10634,26651
10644,26653
10655,26638
10665,26626
10675,26598
10685,26594
10695,26589
10705,26579
10714,26584
10724,26584
10734,26613
10744,26626
10754,26654
10765,26670
10775,26672
10785,26669
10795,26678
10805,26685
10814,26681
10824,26684
10834,26676
10844,26671
10854,26671
10864,26674
10874,26670
10885,26666
10895,26642
10905,26641
10915,26638
10924,26633
10934,26623
10944,26611
10954,26612
10964,26597
10974,26593
10984,26592
10995,26572
11005,26562
11015,26563
11025,26553
11034,26561
11044,26562
11054,26547
11064,26550
11074,26546
11084,26538
11094,26522
11105,26503
11115,26482
11125,26478
11135,26465
11144,26458
11154,26430
11164,26413
11174,26422
11184,26449
11194,26496
11204,26551
11215,26600
11225,26646
11235,26679
11245,26704
11254,26714
11264,26727
11274,26713
11284,26730
11294,26706
11304,26710
11314,26704
11325,26702
11335,26714
11345,26727
11355,26730
11364,26739
11374,26719
11384,26689
11394,26680
11404,26671
11414,26668
11424,26673
11435,26687
11445,26698
11455,26712
11465,26727
11474,26736
11484,26741
11494,26741
11504,26748
11514,26751
11524,26759
11534,26773
11545,26786
11555,26790
11565,26808
11575,26824
11584,26845
11594,26882
11604,26930
11614,26997
11624,27054
11634,27117
11644,27171
11655,27198
11665,27229
11675,27248
11684,27255
11694,27253
11704,27226
11714,27189
11724,27145
11734,27087
11744,27024
11754,26971
11765,26928
11775,26909
11785,26909
11794,26906
11804,26902
11814,26903
11824,26902
11834,26911
11844,26964
11854,27024
11864,27090
11875,27147
11885,27190
11894,27228
11904,27244
11914,27251
11924,27251
11934,27257
11944,27243
11954,27219
11964,27187
11974,27151
11985,27129
11995,27129
12004,27120
12014,27121
12024,27119
12034,27125
12044,27112
12054,27102
12064,27091
12074,27078
12085,27075
12095,27064
12105,27041
12114,27035
12124,27023
12134,27012
12144,27029
12154,27047
12164,27055
12174,27064
12184,27067
12195,27074
12205,27088
12214,27102
12224,27098
12234,27098
12244,27111
12254,27099
12264,27132
12274,27161
12284,27187
12294,27225
12305,27266
12314,27296
12324,27328
12334,27323
12344,27314
12354,27286
12364,27241
12374,27177
12384,27096
12394,27047
12405,27033
12415,27032
12424,27033
12434,27034
12444,27044
12454,27048
12464,27069
12474,27079
12484,27098
12495,27115
12504,27131
12514,27131
12524,27165
12534,27181
12544,27215
12554,27227
12565,27261
12574,27281
12584,27285
12594,27288
12604,27287
12614,27270
12624,27245
12635,27208
12644,27185
12654,27130
12664,27090
12674,27065
12684,27058
12694,27060
12704,27082
12715,27096
12724,27115
12734,27131
12744,27139
12754,27172
12764,27184
12774,27184
12785,27197
12794,27198
12804,27198
12814,27180
12824,27180
12834,27157
12844,27119
12854,27090
12865,27048
12874,27008
12884,26964
12894,26940
12904,26915
12914,26897
12924,26895
12934,26917
12944,26912
12954,26925
12964,26926
12974,26934
12984,26926
12994,26917
13004,26927
13014,26935
13024,26933
13034,26921
13044,26890
13054,26863
13064,26830
13074,26795
13084,26768
13094,26744
13104,26739
13114,26748
13124,26766
13134,26772
13144,26796
13154,26820
13164,26857
13174,26885
13184,26909
13194,26943
13204,26972
13214,26989
13224,27027
13234,27070
13244,27085
13254,27087
13264,27077
13274,27044
13284,27029
13294,27017
13304,27005
13314,27014
13324,27012
13334,27032
13344,27048
13354,27043
13364,27066
13374,27082
13384,27110
13394,27134
13404,27141
13414,27159
13424,27176
13434,27176
13444,27172
13454,27150
13464,27154
13474,27149
13483,27139
13494,27132
13504,27110
13514,27108
13524,27073
13533,27073
13544,27055
13554,27032
13564,27022
13574,26987
13584,26961
13594,26929
13604,26873
13614,26839
13624,26795
13634,26750
13643,26731
13654,26702
13664,26673
13674,26660
13684,26642
13694,26623
13703,26613
13714,26596
13724,26585
13734,26602
13744,26602
13754,26587
13764,26555
13773,26516
13784,26488
13794,26463
13804,26465
13814,26476
13824,26487
13834,26506
13844,26517
13854,26547
13863,26597
13874,26607
13884,26613
13894,26621
13904,26619
13914,26608
13924,26613
13934,26617
13944,26599
13954,26609
13964,26633
13974,26641
13984,26660
13994,26681
14004,26690
14014,26717
14024,26734
14034,26738
14043,26753
14054,26765
14064,26774
14074,26776
14084,26778
14094,26780
14103,26776
14114,26778
14124,26777
14134,26765
14144,26763
14154,26752
14163,26745
14174,26733
14184,26721
14194,26724
14204,26711
14214,26694
14223,26700
14234,26679
14244,26657
14254,26630
14264,26597
14274,26554
14284,26525
14293,26499
14304,26458
14314,26434
14324,26410
14334,26390
14344,26366
14354,26366
14363,26368
14374,26375
14384,26386
14394,26397
14404,26407
14414,26413
14423,26433
14433,26438
14444,26442
14454,26446
14464,26456
14474,26448
14484,26450
14493,26448
14503,26436
14514,26436
14524,26433
14534,26426
14544,26420
14554,26411
14564,26405
14573,26404
14584,26396
14594,26412
14604,26412
14614,26422
14624,26415
14634,26418
14643,26421
14653,26422
14664,26415
14674,26425
14684,26430
14694,26428
14704,26439
14713,26462
14723,26477
14734,26515
14744,26538
14754,26563
14764,26591
14774,26616
14783,26645
14794,26648
14804,26660
14814,26661
14824,26651
14834,26656
14843,26655
14853,26642
14864,26649
14874,26647
14884,26652
14894,26651
14903,26640
14913,26625
14924,26577
14934,26539
14944,26503
14954,26456
14964,26421
14973,26398
14983,26372
14993,26333
15004,26317
15014,26312
15024,26294
15034,26280
15044,26281
15054,26274
15063,26283
15073,26288
15083,26289
15094,26304
15104,26327
15114,26355
15124,26381
15134,26437
15143,26468
15153,26480
15163,26487
15174,26496
15184,26492
15194,26482
15204,26465
15213,26448
15223,26433
15233,26396
15244,26388
15254,26383
15264,26351
15274,26348
15284,26325
15293,26328
15303,26318
15313,26311
15324,26316
15334,26333
15344,26337
15354,26331
15364,26339
15373,26346
15383,26337
15393,26341
15403,26348
15414,26339
15424,26345
15434,26353
15444,26364
15454,26376
15464,26387
15473,26390
15483,26400
15493,26382
15503,26376
15514,26355
15524,26351
15534,26332
15544,26304
15554,26294
15564,26284
15574,26277
15583,26296
15593,26305
15603,26323
15613,26359
15623,26403
15634,26433
15644,26432
15654,26426
15664,26415
15674,26393
15683,26384
15693,26369
15704,26368
15714,26366
15724,26352
15734,26341
15743,26340
15753,26319
15763,26299
15774,26290
15784,26284
15794,26265
15804,26265
15814,26256
15823,26270
15833,26282
15843,26271
15853,26292
15863,26292
15874,26268
15884,26252
15894,26217
15904,26199
15914,26175
15923,26162
15933,26134
15943,26121
15953,26107
15963,26088
15973,26066
15984,26041
15994,26029
004,26032
16014,26044
16024,26045
16033,26065
16043,26082
16053,26089
16063,26119
16073,26154
16084,26206
16094,26259
16104,26293
16114,26316
16124,26326
16133,26325
16143,26300
16153,26274
16163,26260
16173,26234
16183,26224
16194,26224
16204,26213
16214,26228
16224,26239
16234,26251
16243,26257
16253,26248
16263,26227
16273,26215
16283,26206
16293,26203
16304,26177
16314,26141
16324,26116
16334,26113
16344,26115
16353,26105
16363,26078
16373,26039
16383,26038
16393,26034
16403,26019
16414,26011
16424,26006
16434,26037
16444,26055
16453,26076
16463,26083
16473,26064
16483,26060
16493,26038
16503,26029
16514,26013
16524,25988
16534,25988
16544,25984
16554,26001
16563,26011
16573,26012
16583,26007
16593,26027
16603,26035
16613,26042
16624,26034
16634,26037
16644,26049
16654,26054
16664,26043
16673,26029
16683,26003
16693,25981
16703,25957
16713,25939
16723,25926
16734,25917
16744,25896
16754,25921
16764,25929
16773,25955
16783,25973
16793,25996
16803,26029
16813,26047
16823,26072
16833,26083
16844,26072
16854,26081
16864,26088
16874,26086
16883,26082
16893,26101
16903,26104
16913,26108
16923,26084
16933,26076
16943,26052
16954,26048
64,26039
16974,26031
16984,26028
16993,26022
17003,26012
17013,26011
17023,26005
17033,25996
17043,25989
17053,25994
17064,25988
17074,25992
17084,25993
17094,25983
17103,25962
17113,25914
17123,25882
17133,25866
17143,25849
17153,25825
17163,25822
17174,25806
17184,25804
17194,25797
17203,25806
17213,25800
17223,25796
17233,25800
17243,25810
17253,25827
17263,25840
17273,25854
17284,25858
17294,25872
17304,25881
17313,25894
17323,25886
17333,25890
17343,25886
17353,25887
17363,25890
17373,25878
17383,25863
17394,25847
17404,25840
17414,25838
17423,25829
17433,25824
17443,25813
17453,25817
17463,25815
17473,25818
17483,25823
17493,25821
17504,25818
17514,25825
17524,25840
17533,25857
17543,25863
17553,25863
17563,25885
17573,25876
17583,25889
17593,25891
17603,25888
17614,25894
17624,25906
17634,25907
17643,25919
17653,25923
17663,25919
17673,25929
17683,25934
17693,25942
17703,25948
17713,25944
17724,25963
17734,25974
17743,25973
17753,25976
17763,25962
17773,25946
17783,25941
17793,25921
17803,25897
17813,25859
17823,25829
17834,25809
17844,25783
17853,25765
17863,25760
17873,25740
17883,25738
17893,25746
17903,25748
17913,25759
17923,25758
17933,25763
17944,25765
17954,25779
17963,25782
17973,25787
17983,25790
17993,25817
18003,25814
18013,25840
18023,25863
18033,25854
18043,25865
18054,25870
18064,25874
18073,25871
18083,25857
18093,25835
18103,25833
18113,25827
18123,25820
18133,25825
18143,25815
18153,25826
18164,25828
18174,25830
18183,25833
18193,25834
18203,25838
18213,25841
18223,25842
18233,25848
18243,25846
18253,25857
18263,25867
18274,25868
18283,25875
18293,25875
18303,25873
18313,25886
18323,25899
18333,25905
18343,25917
18353,25922
18363,25917
18373,25919
18384,25919
18393,25923
18403,25917
18413,25921
18423,25921
18433,25910
18443,25931
18453,25920
18463,25898
18473,25862
18483,25831
18494,25808
18503,25779
18513,25775
18523,25742
18533,25739
18543,25721
18553,25720
18563,25720
18573,25710
18583,25704
18593,25700
18604,25705
18613,25713
18623,25724
18633,25709
18643,25740
18653,25751
18663,25775
18673,25786
18683,25809
18693,25812
18703,25830
18714,25846
18723,25851
18733,25851
18743,25838
18753,25831
18763,25819
18773,25815
18783,25801
18793,25771
18803,25778
18813,25762
18824,25773
18833,25769
18843,25766
18853,25765
18863,25770
18873,25784
18883,25787
18893,25782
18903,25798
18913,25799
18923,25804
18933,25809
18943,25812
18953,25824
18963,25821
18973,25834
18983,25838
18993,25852
19003,25855
19013,25842
19023,25857
19033,25858
19043,25861
19053,25869
19063,25864
19073,25864
19083,25870
19093,25873
19103,25867
19113,25870
19123,25867
19133,25872
19143,25870
19153,25873
19163,25851
19173,25816
19183,25784
19193,25754
19203,25727
19213,25705
19223,25699
19233,25667
19243,25653
19253,25649
19263,25634
19273,25634
19283,25620
19293,25639
19303,25635
19313,25646
19323,25646
19333,25669
19343,25666
19353,25679
19363,25694
19373,25707
19383,25718
19393,25724
19403,25734
19413,25750
19423,25747
19433,25751
19443,25741
19453,25739
19463,25727
19473,25716
19483,25716
19493,25713
19503,25695
19513,25700
19523,25694
19533,25697
19543,25693
19553,25695
19563,25693
19573,25700
19583,25712
19593,25708
19603,25706
19613,25707
19623,25714
19633,25721
19643,25729
19653,25728
19663,25735
19673,25746
19683,25750
19693,25758
19703,25766
19713,25778
19723,25772
19733,25782
19743,25783
19753,25788
19763,25783
19773,25783
19783,25780
19793,25795
19803,25792
19813,25803
19823,25798
19833,25802
19843,25803
19853,25801
19863,25791
19873,25773
19883,25740
19893,25718
19903,25700
19912,25676
19923,25650
19933,25631
19943,25611
19953,25603
19963,25586
19973,25581
19983,25571
19993,25557
20003,25556
20013,25550
20022,25558
20033,25566
20043,25554
20053,25581
20063,25585
20073,25606
20083,25610
20093,25623
20103,25632
20113,25644
20123,25648
20132,25658
20143,25650
20153,25636
20163,25639
20173,25624
20183,25615
20193,25607
20203,25595
20213,25585
20223,25584
20233,25584
20242,25578
20253,25578
20263,25566
20273,25576
20283,25575
20293,25574
20303,25570
20313,25574
20323,25580
20333,25588
20343,25605
20352,25622
20362,25627
20373,25629
20383,25633
20393,25645
20403,25657
20413,25672
20423,25663
20433,25665
20443,25680
20453,25666
20462,25668
20472,25670
20483,25660
20493,25677
20503,25680
20513,25696
20523,25703
20533,25707
20543,25707
20553,25714
20563,25728
20572,25729
20582,25723
20593,25695
20603,25682
20613,25661
20623,25625
20633,25604
20643,25563
20653,25546
20663,25528
20673,25509
20682,25498
20692,25488
20703,25457
20713,25464
20723,25469
20733,25481
20743,25476
20753,25470
20763,25496
20773,25496
20782,25507
20792,25513
20802,25517
20813,25523
20823,25529
20833,25542
20843,25556
20853,25555
20863,25547
20873,25543
20883,25535
20893,25527
20902,25527
20912,25512
20922,25493
20933,25509
20943,25498
20953,25492
20963,25493
20973,25488
20983,25488
20993,25481
21003,25487
21012,25499
21022,25487
21032,25479
21043,25491
21053,25494
21063,25501
21073,25509
21083,25506
21093,25514
21103,25524
21113,25533
21122,25535
21132,25544
21142,25528
21152,25555
21163,25558
21173,25555
21183,25573
21193,25564
21203,25565
21213,25579
21223,25580
21232,25586
21242,25588
21252,25587
21262,25594
21273,25599
21283,25611
21293,25611
21303,25592
21313,25565
21323,25558
21333,25532
21342,25517
21352,25497
21362,25475
21372,25456
21382,25444
21393,25426
21403,25423
21413,25416
21423,25408
21433,25417
21443,25425
21453,25439
21462,25448
21472,25453
21482,25455
21492,25477
21503,25479
21513,25498
21523,25520
21533,25518
21543,25532
21553,25536
21563,25536
21572,25542
21582,25541
21592,25522
21602,25529
21613,25502
21623,25510
21633,25509
21643,25493
21653,25494
21663,25490
21673,25483
21682,25488
21692,25484
21702,25483
21712,25497
21722,25494
21733,25503
21743,25516
21753,25507
21763,25517
21773,25523
21783,25520
21792,25525
21802,25527
21812,25521
21822,25526
21832,25528
21843,25540
21853,25545
21863,25551
21873,25555
21883,25558
21893,25562
21902,25573
21912,25569
21922,25569
21932,25576
21942,25581
21953,25583
21963,25588
21973,25591
21983,25569
21993,25563
22003,25539
22012,25521
22022,25505
22032,25479
22042,25458
22052,25438
22062,25423
22073,25424
22083,25406
22093,25397
22103,25404
22113,25401
22122,25402
22132,25405
22142,25404
22152,25424
22162,25432
22172,25448
22183,25466
22193,25478
22203,25483
22213,25511
22223,25514
22233,25528
22242,25532
22252,25544
22262,25522
22272,25522
22282,25516
22292,25509
22303,25506
22313,25488
22323,25485
22333,25482
22343,25480
22352,25480
22362,25477
22372,25468
22382,25480
22392,25479
22402,25492
22413,25498
22423,25492
22433,25496
22443,25507
22453,25516
22462,25524
22472,25527
22482,25519
22492,25524
22502,25534
22512,25530
22523,25544
22533,25538
22543,25544
22553,25547
22563,25549
22572,25561
22582,25562
22592,25555
22602,25571
22612,25575
22622,25583
22632,25575
22643,25556
22653,25533
22663,25517
22673,25502
22682,25477
22692,25461
22702,25431
22712,25414
22722,25397
22732,25395
22742,25379
22753,25376
22763,25372
22773,25382
22783,25380
22792,25393
22802,25406
22812,25410
22822,25424
22832,25436
22842,25460
22852,25488
22862,25492
22873,25500
22883,25524
22893,25530
22903,25541
22912,25539
22922,25538
22932,25535
22942,25527
22952,25526
22962,25522
22972,25522
22983,25517
22993,25521
23003,25523
23013,25527
23022,25528
23032,25523
23042,25519
23052,25526
23062,25541
23072,25540
23082,25542
23093,25550
23103,25558
23113,25569
23123,25577
23132,25580
23142,25588
23152,25582
23162,25605
23172,25592
23182,25599
23192,25610
23202,25617
23213,25616
23223,25625
23233,25636
23242,25631
23252,25620
23262,25604
23272,25593
23282,25571
23292,25562
23302,25529
23312,25512
23323,25483
23333,25476
23343,25456
23352,25445
23362,25441
23372,25435
23382,25425
23392,25433
23402,25446
23412,25449
23422,25452
23433,25451
23443,25479
23453,25492
23462,25504
23472,25527
23482,25535
23492,25539
23502,25558
23512,25551
23522,25570
23532,25557
23542,25549
23553,25537
23563,25524
23573,25522
23582,25526
23592,25516
23602,25499
23612,25513
23622,25511
23632,25519
23642,25516
23652,25531
23663,25524
23673,25535
23683,25546
23692,25549
23702,25552
23712,25550
23722,25557
23732,25553
23742,25573
23752,25579
23762,25582
23772,25586
23783,25593
23793,25597
23802,25602
23812,25603
23822,25595
23832,25604
23842,25598
23852,25599
23862,25587
23872,25560
23882,25535
23893,25526
23903,25504
23912,25485
23922,25467
23932,25440
23942,25430
23952,25420
23962,25416
23972,25422
23982,25412
23992,25414
24002,25422
24013,25425
24022,25439
24032,25458
24042,25472
24052,25477
24062,25496
24072,25518
24082,25528
24092,25539
24102,25536
24112,25542
24123,25541
24133,25540
24142,25532
24152,25517
24162,25509
24172,25503
24182,25503
24192,25510
24202,25509
24212,25501
24222,25509
24233,25505
24243,25510
24252,25515
24262,25519
24272,25525
24282,25530
24292,25540
24302,25543
24312,25558
24322,25562
24332,25571
24342,25570
24353,25572
24362,25583
24372,25594
24382,25596
24392,25607
24402,25615
24412,25625
24422,25629
24432,25620
24442,25617
24452,25608
24463,25594
24472,25570
24482,25549
24492,25525
24502,25508
24512,25484
24522,25469
24532,25453
24542,25434
24552,25428
24562,25427
24573,25420
24582,25420
24592,25420
24602,25422
24612,25444
24622,25457
24632,25473
24642,25489
24652,25495
24662,25502
24672,25518
24683,25523
24692,25527
24702,25539
24712,25528
24722,25519
24732,25523
24742,25522
24752,25522
24762,25505
24772,25494
24782,25494
24792,25495
24803,25491
24812,25485
24822,25487
24832,25484
24842,25484
24852,25494
24862,25499
24872,25509
24882,25500
24892,25516
24902,25515
24913,25521
24922,25529
24932,25534
24942,25532
24952,25536
24962,25552
24972,25557
24982,25555
24992,25555
25002,25567
25012,25572
25022,25569
25032,25583
25042,25579
25052,25558
25062,25552
25072,25534
25082,25518
25092,25503
25102,25472
25112,25458
25122,25441
25132,25423
25142,25409
25152,25404
25162,25388
25172,25395
25182,25392
25192,25400
25202,25409
25212,25418
25222,25418
25232,25433
25242,25439
25252,25463
25262,25470
25272,25480
25282,25486
25292,25498
25302,25503
25312,25514
25322,25500
25332,25497
25342,25497
25352,25488
25361,25483
25372,25472
25382,25459
25392,25462
25402,25460
25412,25462
25422,25469
25432,25469
25442,25472
25452,25475
25462,25479
25472,25486
25482,25484
25492,25487
25502,25484
25512,25489
25522,25496
25532,25493
25542,25500
25552,25497
25562,25509
25572,25513
25582,25519
25592,25540
25602,25553
25612,25572
25622,25593
25632,25601
25642,25619
25652,25626
25662,25604
25672,25603
25682,25579
25692,25552
25701,25524
25712,25491
25722,25465
25732,25442
25742,25426
25752,25405
25762,25397
25772,25386
25782,25373
25792,25378
25802,25375
25811,25385
25822,25403
25832,25391
25842,25405
25852,25400
25862,25416
25872,25427
25882,25427
25892,25430
25902,25441
25912,25449
25921,25441
25932,25436
25942,25422
25952,25421
25962,25409
25972,25417
25982,25409
25992,25400
26002,25383
26012,25388
26022,25387
26031,25395
26041,25388
26052,25393
26062,25395
26072,25402
26082,25418
26092,25429
26102,25439
26112,25437
26122,25460
26132,25460
26142,25470
26151,25472
26162,25471
26172,25471
26182,25490
26192,25483
26202,25491
26212,25507
26222,25492
26232,25488
26242,25503
26252,25507
26261,25505
26272,25502
26282,25505
26292,25513
26302,25510
26312,25503
26322,25482
26332,25458
26342,25435
26352,25408
26362,25390
26371,25362
26381,25341
26392,25305
26402,25292
26412,25280
26422,25275
26432,25274
26442,25274
26452,25273
26462,25284
26472,25301
26482,25316
26491,25336
26502,25337
26512,25341
26522,25367
26532,25377
26542,25395
26552,25398
26562,25396
26572,25396
26582,25390
26592,25388
26601,25387
26612,25381
26622,25367
26632,25372
26642,25364
26652,25358
26662,25365
26672,25353
26682,25348
26692,25350
26702,25365
26711,25365
26721,25372
26732,25367
26742,25383
26752,25391
26762,25393
26772,25408
26782,25401
26792,25410
26802,25433
26812,25432
26821,25434
26831,25441
26842,25431
26852,25444
26862,25436
26872,25452
26882,25454
26892,25458
26902,25458
26912,25464
26922,25457
26931,25464
26941,25469
